0,1,2,3,4,5,6,7,8,9,10,11,12,13,14,15,16,17,18,19,20,21,22,23,24,25,26,27,28,29,30,31,32,33,34,35,36,37,38,39,40,41,42,43,44,45,46,47,48,49,50,51,52,53,54,55,56,57,58,59,60,61,62,63,64,65,66,67,68,69,70,71,72,73,74,75,76,77,78,79,80,81,82,83,84,85,86,87,88,89,90,91,92,93,94,95,96,97,98,99,100,101,102,103,104,105,106,107,108,109,110,111,112,113,114,115,116,117,118,119,120,121,122,123,124,125,126,127,128,129,130,131,132,133,134,135,136,137,138,139,140,141,142,143,144,145,146,147,148,149,150,151,152,153,154,155,156,157,158,159,160,161,162,163,164,165,166,167,168,169,170,171,172,173,174,175,176,177,178,179,180,181,182,183,184,185,186,Label
-0.17,-0.155,-0.175,-0.18,-0.19,-0.18,-0.155,-0.135,-0.155,-0.19,-0.205,-0.235,-0.225,-0.245,-0.25,-0.26,-0.275,-0.275,-0.275,-0.265,-0.255,-0.265,-0.275,-0.29,-0.29,-0.29,-0.29,-0.285,-0.295,-0.305,-0.285,-0.275,-0.275,-0.28,-0.285,-0.305,-0.29,-0.3,-0.28,-0.29,-0.3,-0.315,-0.32,-0.335,-0.36,-0.385,-0.385,-0.405,-0.455,-0.485,-0.485,-0.425,-0.33,-0.22,-0.07,0.12,0.375,0.62,0.78,0.84,0.765,0.52,0.17,-0.165,-0.365,-0.435,-0.425,-0.37,-0.33,-0.325,-0.335,-0.345,-0.33,-0.325,-0.315,-0.31,-0.32,-0.335,-0.34,-0.325,-0.345,-0.335,-0.33,-0.335,-0.33,-0.325,-0.33,-0.33,-0.345,-0.355,-0.335,-0.325,-0.305,-0.32,-0.32,-0.33,-0.34,-0.335,-0.34,-0.345,-0.355,-0.355,-0.34,-0.33,-0.33,-0.33,-0.34,-0.35,-0.325,-0.325,-0.33,-0.33,-0.335,-0.335,-0.34,-0.33,-0.34,-0.35,-0.355,-0.35,-0.345,-0.33,-0.32,-0.335,-0.33,-0.345,-0.33,-0.335,-0.335,-0.345,-0.345,-0.355,-0.34,-0.34,-0.335,-0.33,-0.35,-0.35,-0.345,-0.335,-0.335,-0.335,-0.35,-0.355,-0.355,-0.345,-0.345,-0.335,-0.35,-0.36,-0.36,-0.36,-0.365,-0.36,-0.37,-0.385,-0.37,-0.36,-0.355,-0.36,-0.375,-0.375,-0.365,-0.365,-0.36,-0.36,-0.365,-0.37,-0.355,-0.33,-0.325,-0.325,-0.335,-0.34,-0.315,-0.3,-0.3,-0.29,-0.295,-0.29,-0.285,-0.275,-0.255,-0.25,-0.25,-0.265,-0.255,+
0.84,0.765,0.52,0.17,-0.165,-0.365,-0.435,-0.425,-0.37,-0.33,-0.325,-0.335,-0.345,-0.33,-0.325,-0.315,-0.31,-0.32,-0.335,-0.34,-0.325,-0.345,-0.335,-0.33,-0.335,-0.33,-0.325,-0.33,-0.33,-0.345,-0.355,-0.335,-0.325,-0.305,-0.32,-0.32,-0.33,-0.34,-0.335,-0.34,-0.345,-0.355,-0.355,-0.34,-0.33,-0.33,-0.33,-0.34,-0.35,-0.325,-0.325,-0.33,-0.33,-0.335,-0.335,-0.34,-0.33,-0.34,-0.35,-0.355,-0.35,-0.345,-0.33,-0.32,-0.335,-0.33,-0.345,-0.33,-0.335,-0.335,-0.345,-0.345,-0.355,-0.34,-0.34,-0.335,-0.33,-0.35,-0.35,-0.345,-0.335,-0.335,-0.335,-0.35,-0.355,-0.355,-0.345,-0.345,-0.335,-0.35,-0.36,-0.36,-0.36,-0.365,-0.36,-0.37,-0.385,-0.37,-0.36,-0.355,-0.36,-0.375,-0.375,-0.365,-0.365,-0.36,-0.36,-0.365,-0.37,-0.355,-0.33,-0.325,-0.325,-0.335,-0.34,-0.315,-0.3,-0.3,-0.29,-0.295,-0.29,-0.285,-0.275,-0.255,-0.25,-0.25,-0.265,-0.255,-0.245,-0.23,-0.245,-0.245,-0.255,-0.255,-0.24,-0.25,-0.255,-0.245,-0.255,-0.25,-0.25,-0.265,-0.26,-0.26,-0.265,-0.27,-0.265,-0.26,-0.275,-0.28,-0.29,-0.275,-0.27,-0.26,-0.28,-0.28,-0.285,-0.275,-0.275,-0.265,-0.27,-0.285,-0.29,-0.28,-0.275,-0.285,-0.28,-0.3,-0.3,-0.305,-0.295,-0.3,-0.31,-0.31,-0.305,-0.295,-0.285,-0.285,-0.29,-0.295,-0.31,-0.29,-0.295,-0.3,-0.305,-0.31,-0.325,N
0.94,0.905,0.755,0.49,0.165,-0.11,-0.27,-0.39,-0.45,-0.475,-0.455,-0.425,-0.39,-0.39,-0.385,-0.39,-0.38,-0.38,-0.38,-0.395,-0.385,-0.385,-0.385,-0.375,-0.395,-0.41,-0.41,-0.4,-0.395,-0.39,-0.405,-0.395,-0.385,-0.375,-0.39,-0.39,-0.405,-0.41,-0.41,-0.39,-0.39,-0.395,-0.405,-0.415,-0.4,-0.41,-0.405,-0.41,-0.415,-0.41,-0.4,-0.4,-0.395,-0.39,-0.405,-0.41,-0.39,-0.39,-0.385,-0.385,-0.41,-0.405,-0.395,-0.39,-0.375,-0.39,-0.395,-0.41,-0.4,-0.39,-0.39,-0.385,-0.405,-0.415,-0.415,-0.4,-0.395,-0.405,-0.415,-0.42,-0.42,-0.41,-0.415,-0.425,-0.42,-0.435,-0.43,-0.43,-0.42,-0.43,-0.45,-0.455,-0.45,-0.435,-0.445,-0.45,-0.455,-0.47,-0.46,-0.455,-0.45,-0.455,-0.47,-0.475,-0.46,-0.45,-0.445,-0.44,-0.435,-0.44,-0.41,-0.395,-0.37,-0.365,-0.36,-0.365,-0.34,-0.325,-0.315,-0.32,-0.33,-0.33,-0.32,-0.31,-0.3,-0.3,-0.32,-0.32,-0.315,-0.305,-0.305,-0.295,-0.32,-0.33,-0.305,-0.31,-0.3,-0.3,-0.32,-0.325,-0.31,-0.305,-0.315,-0.305,-0.315,-0.315,-0.31,-0.295,-0.29,-0.305,-0.31,-0.32,-0.315,-0.3,-0.315,-0.315,-0.315,-0.33,-0.315,-0.32,-0.315,-0.325,-0.335,-0.34,-0.335,-0.335,-0.33,-0.325,-0.345,-0.35,-0.345,-0.335,-0.33,-0.33,-0.345,-0.345,-0.345,-0.32,-0.33,-0.335,-0.34,-0.355,-0.335,-0.33,-0.33,-0.335,-0.355,N
0.885,0.96,0.85,0.52,0.05,-0.32,-0.5,-0.505,-0.445,-0.415,-0.395,-0.39,-0.395,-0.39,-0.395,-0.405,-0.395,-0.405,-0.39,-0.395,-0.395,-0.41,-0.405,-0.4,-0.4,-0.415,-0.405,-0.42,-0.415,-0.405,-0.405,-0.42,-0.42,-0.435,-0.42,-0.41,-0.41,-0.405,-0.425,-0.43,-0.42,-0.415,-0.41,-0.41,-0.425,-0.42,-0.4,-0.395,-0.4,-0.4,-0.395,-0.415,-0.405,-0.39,-0.4,-0.4,-0.415,-0.425,-0.425,-0.415,-0.415,-0.41,-0.425,-0.425,-0.42,-0.415,-0.4,-0.4,-0.41,-0.425,-0.41,-0.405,-0.395,-0.4,-0.4,-0.405,-0.385,-0.4,-0.39,-0.39,-0.4,-0.415,-0.405,-0.405,-0.41,-0.415,-0.42,-0.42,-0.425,-0.415,-0.415,-0.41,-0.435,-0.43,-0.435,-0.42,-0.42,-0.42,-0.42,-0.425,-0.425,-0.415,-0.395,-0.395,-0.39,-0.375,-0.36,-0.34,-0.335,-0.33,-0.335,-0.335,-0.325,-0.32,-0.305,-0.305,-0.315,-0.31,-0.305,-0.3,-0.3,-0.3,-0.31,-0.31,-0.31,-0.315,-0.3,-0.305,-0.315,-0.32,-0.325,-0.31,-0.305,-0.305,-0.32,-0.325,-0.305,-0.31,-0.295,-0.31,-0.325,-0.33,-0.32,-0.32,-0.32,-0.325,-0.35,-0.35,-0.34,-0.335,-0.33,-0.335,-0.34,-0.36,-0.35,-0.35,-0.355,-0.36,-0.355,-0.365,-0.355,-0.35,-0.34,-0.355,-0.35,-0.365,-0.365,-0.35,-0.355,-0.35,-0.37,-0.38,-0.37,-0.36,-0.365,-0.36,-0.365,-0.38,-0.37,-0.365,-0.35,-0.35,-0.35,-0.37,-0.365,-0.345,-0.345,N
0.81,0.86,0.77,0.475,0.065,-0.305,-0.5,-0.52,-0.475,-0.41,-0.39,-0.39,-0.4,-0.41,-0.405,-0.385,-0.39,-0.395,-0.405,-0.41,-0.405,-0.4,-0.39,-0.395,-0.41,-0.415,-0.41,-0.395,-0.405,-0.41,-0.405,-0.405,-0.41,-0.39,-0.385,-0.39,-0.395,-0.4,-0.4,-0.4,-0.395,-0.395,-0.405,-0.405,-0.4,-0.395,-0.385,-0.375,-0.385,-0.395,-0.39,-0.385,-0.375,-0.385,-0.395,-0.395,-0.385,-0.375,-0.375,-0.385,-0.395,-0.39,-0.39,-0.365,-0.375,-0.385,-0.395,-0.38,-0.385,-0.375,-0.38,-0.39,-0.38,-0.375,-0.375,-0.375,-0.375,-0.38,-0.39,-0.39,-0.365,-0.37,-0.375,-0.385,-0.39,-0.39,-0.375,-0.365,-0.385,-0.38,-0.39,-0.375,-0.375,-0.365,-0.37,-0.385,-0.395,-0.385,-0.385,-0.37,-0.365,-0.37,-0.375,-0.35,-0.335,-0.32,-0.315,-0.32,-0.325,-0.315,-0.295,-0.285,-0.3,-0.295,-0.285,-0.285,-0.28,-0.27,-0.28,-0.29,-0.295,-0.295,-0.29,-0.28,-0.29,-0.295,-0.31,-0.295,-0.285,-0.28,-0.275,-0.295,-0.305,-0.3,-0.295,-0.295,-0.285,-0.3,-0.305,-0.3,-0.295,-0.3,-0.305,-0.315,-0.31,-0.315,-0.295,-0.3,-0.31,-0.33,-0.34,-0.33,-0.32,-0.32,-0.315,-0.325,-0.335,-0.33,-0.315,-0.32,-0.32,-0.33,-0.345,-0.34,-0.335,-0.33,-0.335,-0.345,-0.35,-0.345,-0.34,-0.335,-0.335,-0.33,-0.335,-0.34,-0.335,-0.32,-0.34,-0.34,-0.35,-0.365,-0.36,-0.345,-0.345,-0.35,-0.35,N
0.82,0.78,0.535,0.145,-0.2,-0.42,-0.5,-0.48,-0.45,-0.41,-0.4,-0.39,-0.39,-0.4,-0.405,-0.425,-0.425,-0.405,-0.395,-0.405,-0.405,-0.415,-0.405,-0.385,-0.39,-0.395,-0.395,-0.395,-0.395,-0.385,-0.39,-0.39,-0.4,-0.425,-0.41,-0.4,-0.395,-0.4,-0.405,-0.425,-0.415,-0.405,-0.405,-0.405,-0.41,-0.415,-0.405,-0.42,-0.405,-0.41,-0.41,-0.42,-0.415,-0.405,-0.395,-0.395,-0.395,-0.4,-0.395,-0.395,-0.405,-0.405,-0.42,-0.435,-0.415,-0.405,-0.395,-0.39,-0.415,-0.405,-0.405,-0.4,-0.395,-0.395,-0.405,-0.42,-0.415,-0.4,-0.395,-0.4,-0.405,-0.425,-0.425,-0.425,-0.42,-0.425,-0.45,-0.445,-0.45,-0.435,-0.445,-0.47,-0.455,-0.46,-0.44,-0.435,-0.425,-0.43,-0.445,-0.45,-0.445,-0.43,-0.42,-0.41,-0.425,-0.42,-0.405,-0.38,-0.37,-0.365,-0.365,-0.365,-0.345,-0.33,-0.315,-0.305,-0.305,-0.32,-0.31,-0.31,-0.305,-0.31,-0.315,-0.32,-0.315,-0.305,-0.305,-0.295,-0.31,-0.32,-0.31,-0.315,-0.295,-0.3,-0.305,-0.3,-0.285,-0.28,-0.29,-0.295,-0.305,-0.325,-0.305,-0.3,-0.3,-0.315,-0.325,-0.335,-0.325,-0.315,-0.32,-0.335,-0.33,-0.34,-0.325,-0.325,-0.32,-0.315,-0.335,-0.335,-0.345,-0.335,-0.325,-0.33,-0.315,-0.335,-0.33,-0.33,-0.33,-0.33,-0.335,-0.34,-0.33,-0.32,-0.315,-0.325,-0.335,-0.355,-0.345,-0.34,-0.335,-0.32,-0.325,-0.35,-0.33,-0.315,-0.315,N
0.885,0.795,0.52,0.13,-0.215,-0.425,-0.5,-0.49,-0.45,-0.4,-0.39,-0.395,-0.395,-0.4,-0.39,-0.38,-0.385,-0.385,-0.4,-0.41,-0.41,-0.39,-0.39,-0.405,-0.405,-0.415,-0.41,-0.395,-0.395,-0.4,-0.415,-0.415,-0.415,-0.4,-0.39,-0.39,-0.41,-0.415,-0.405,-0.395,-0.395,-0.395,-0.405,-0.41,-0.41,-0.4,-0.39,-0.395,-0.41,-0.425,-0.415,-0.405,-0.41,-0.405,-0.415,-0.425,-0.425,-0.41,-0.395,-0.39,-0.4,-0.41,-0.41,-0.4,-0.39,-0.41,-0.42,-0.42,-0.415,-0.415,-0.405,-0.42,-0.415,-0.425,-0.41,-0.4,-0.405,-0.4,-0.4,-0.41,-0.4,-0.395,-0.395,-0.405,-0.41,-0.425,-0.425,-0.41,-0.41,-0.42,-0.43,-0.445,-0.44,-0.435,-0.43,-0.43,-0.45,-0.445,-0.445,-0.435,-0.435,-0.445,-0.44,-0.45,-0.43,-0.43,-0.415,-0.4,-0.4,-0.385,-0.365,-0.335,-0.33,-0.325,-0.33,-0.33,-0.31,-0.295,-0.285,-0.29,-0.29,-0.31,-0.295,-0.285,-0.28,-0.3,-0.29,-0.295,-0.29,-0.28,-0.275,-0.275,-0.29,-0.29,-0.285,-0.27,-0.27,-0.27,-0.275,-0.29,-0.285,-0.275,-0.275,-0.29,-0.295,-0.305,-0.295,-0.295,-0.285,-0.29,-0.3,-0.305,-0.31,-0.295,-0.3,-0.305,-0.31,-0.325,-0.325,-0.315,-0.31,-0.315,-0.315,-0.325,-0.32,-0.31,-0.32,-0.315,-0.33,-0.33,-0.32,-0.31,-0.31,-0.31,-0.33,-0.335,-0.33,-0.32,-0.325,-0.325,-0.33,-0.335,-0.33,-0.325,-0.325,-0.32,-0.325,N
0.945,0.92,0.775,0.445,0.02,-0.295,-0.445,-0.47,-0.425,-0.38,-0.36,-0.36,-0.37,-0.38,-0.38,-0.375,-0.37,-0.365,-0.37,-0.385,-0.385,-0.375,-0.37,-0.37,-0.385,-0.395,-0.385,-0.385,-0.39,-0.385,-0.395,-0.41,-0.4,-0.395,-0.38,-0.395,-0.395,-0.4,-0.4,-0.395,-0.39,-0.39,-0.395,-0.405,-0.39,-0.385,-0.375,-0.375,-0.38,-0.39,-0.385,-0.37,-0.37,-0.37,-0.375,-0.385,-0.37,-0.39,-0.375,-0.37,-0.38,-0.39,-0.39,-0.385,-0.375,-0.375,-0.385,-0.395,-0.39,-0.385,-0.375,-0.38,-0.385,-0.39,-0.38,-0.38,-0.37,-0.37,-0.365,-0.39,-0.365,-0.365,-0.36,-0.375,-0.38,-0.4,-0.39,-0.375,-0.375,-0.37,-0.385,-0.39,-0.39,-0.39,-0.39,-0.375,-0.385,-0.395,-0.38,-0.37,-0.375,-0.375,-0.39,-0.405,-0.375,-0.37,-0.36,-0.375,-0.385,-0.38,-0.37,-0.36,-0.345,-0.345,-0.33,-0.33,-0.315,-0.31,-0.295,-0.285,-0.285,-0.295,-0.28,-0.27,-0.28,-0.28,-0.28,-0.29,-0.29,-0.28,-0.275,-0.28,-0.285,-0.29,-0.29,-0.28,-0.28,-0.285,-0.29,-0.3,-0.295,-0.285,-0.28,-0.285,-0.285,-0.295,-0.285,-0.28,-0.275,-0.28,-0.29,-0.31,-0.305,-0.285,-0.27,-0.27,-0.275,-0.285,-0.285,-0.27,-0.265,-0.265,-0.265,-0.28,-0.265,-0.245,-0.235,-0.235,-0.25,-0.25,-0.245,-0.215,-0.22,-0.245,-0.255,-0.23,-0.205,-0.21,-0.22,-0.23,-0.24,-0.24,-0.245,-0.25,-0.27,-0.285,-0.315,N
0.845,0.885,0.79,0.56,0.225,-0.07,-0.285,-0.425,-0.5,-0.55,-0.535,-0.5,-0.465,-0.45,-0.45,-0.435,-0.42,-0.41,-0.41,-0.415,-0.42,-0.425,-0.42,-0.43,-0.43,-0.44,-0.45,-0.45,-0.43,-0.43,-0.43,-0.445,-0.445,-0.44,-0.425,-0.43,-0.43,-0.425,-0.445,-0.445,-0.43,-0.435,-0.435,-0.445,-0.445,-0.435,-0.43,-0.425,-0.43,-0.43,-0.44,-0.42,-0.43,-0.425,-0.43,-0.44,-0.44,-0.43,-0.43,-0.415,-0.425,-0.43,-0.455,-0.445,-0.445,-0.43,-0.43,-0.44,-0.44,-0.435,-0.43,-0.415,-0.415,-0.425,-0.425,-0.42,-0.405,-0.405,-0.415,-0.415,-0.425,-0.43,-0.405,-0.405,-0.405,-0.405,-0.43,-0.415,-0.41,-0.415,-0.43,-0.445,-0.465,-0.46,-0.45,-0.455,-0.46,-0.465,-0.485,-0.495,-0.475,-0.49,-0.5,-0.495,-0.515,-0.5,-0.485,-0.49,-0.485,-0.5,-0.5,-0.49,-0.48,-0.46,-0.46,-0.47,-0.465,-0.44,-0.43,-0.425,-0.41,-0.41,-0.4,-0.39,-0.38,-0.355,-0.35,-0.355,-0.35,-0.34,-0.33,-0.325,-0.305,-0.32,-0.315,-0.305,-0.3,-0.305,-0.305,-0.31,-0.33,-0.31,-0.315,-0.315,-0.32,-0.325,-0.325,-0.325,-0.31,-0.31,-0.315,-0.325,-0.33,-0.325,-0.325,-0.315,-0.32,-0.33,-0.335,-0.33,-0.315,-0.32,-0.32,-0.335,-0.335,-0.325,-0.325,-0.32,-0.32,-0.325,-0.35,-0.345,-0.345,-0.335,-0.345,-0.355,-0.355,-0.355,-0.345,-0.335,-0.335,-0.345,-0.355,-0.34,-0.335,-0.33,-0.335,N
0.89,0.83,0.58,0.185,-0.205,-0.45,-0.525,-0.495,-0.465,-0.435,-0.415,-0.415,-0.415,-0.4,-0.395,-0.405,-0.425,-0.435,-0.415,-0.415,-0.415,-0.415,-0.43,-0.42,-0.41,-0.405,-0.42,-0.41,-0.42,-0.4,-0.395,-0.385,-0.4,-0.4,-0.4,-0.4,-0.395,-0.4,-0.4,-0.4,-0.41,-0.395,-0.41,-0.4,-0.395,-0.405,-0.41,-0.415,-0.405,-0.4,-0.395,-0.405,-0.415,-0.405,-0.415,-0.41,-0.405,-0.405,-0.41,-0.405,-0.4,-0.395,-0.405,-0.405,-0.4,-0.395,-0.39,-0.395,-0.39,-0.395,-0.42,-0.415,-0.405,-0.4,-0.4,-0.415,-0.42,-0.41,-0.395,-0.4,-0.405,-0.415,-0.435,-0.415,-0.415,-0.4,-0.405,-0.42,-0.43,-0.425,-0.41,-0.41,-0.405,-0.415,-0.425,-0.425,-0.42,-0.41,-0.41,-0.42,-0.43,-0.425,-0.42,-0.405,-0.415,-0.41,-0.41,-0.385,-0.37,-0.36,-0.35,-0.35,-0.35,-0.335,-0.32,-0.305,-0.315,-0.315,-0.32,-0.305,-0.305,-0.295,-0.29,-0.295,-0.295,-0.285,-0.285,-0.27,-0.28,-0.28,-0.295,-0.28,-0.285,-0.275,-0.285,-0.295,-0.305,-0.295,-0.285,-0.285,-0.29,-0.3,-0.31,-0.295,-0.3,-0.29,-0.285,-0.305,-0.31,-0.3,-0.295,-0.305,-0.3,-0.305,-0.32,-0.32,-0.31,-0.3,-0.31,-0.32,-0.34,-0.33,-0.31,-0.315,-0.325,-0.325,-0.345,-0.33,-0.32,-0.32,-0.335,-0.335,-0.355,-0.34,-0.32,-0.315,-0.33,-0.34,-0.34,-0.35,-0.33,-0.33,-0.34,-0.35,-0.355,-0.345,-0.335,N
0.925,0.795,0.47,0.02,-0.325,-0.47,-0.485,-0.41,-0.365,-0.355,-0.365,-0.38,-0.385,-0.38,-0.37,-0.37,-0.375,-0.385,-0.395,-0.385,-0.38,-0.385,-0.375,-0.39,-0.405,-0.405,-0.39,-0.385,-0.385,-0.39,-0.41,-0.4,-0.39,-0.385,-0.385,-0.395,-0.39,-0.395,-0.38,-0.375,-0.38,-0.385,-0.4,-0.385,-0.38,-0.375,-0.38,-0.395,-0.395,-0.385,-0.375,-0.37,-0.365,-0.385,-0.395,-0.385,-0.385,-0.37,-0.375,-0.37,-0.375,-0.375,-0.37,-0.355,-0.365,-0.38,-0.375,-0.37,-0.38,-0.365,-0.37,-0.375,-0.39,-0.38,-0.375,-0.38,-0.37,-0.375,-0.38,-0.385,-0.385,-0.37,-0.375,-0.375,-0.38,-0.38,-0.38,-0.38,-0.375,-0.39,-0.395,-0.385,-0.385,-0.375,-0.375,-0.385,-0.385,-0.39,-0.37,-0.365,-0.365,-0.375,-0.385,-0.35,-0.345,-0.325,-0.325,-0.33,-0.325,-0.325,-0.315,-0.315,-0.315,-0.3,-0.3,-0.285,-0.27,-0.265,-0.26,-0.275,-0.285,-0.265,-0.255,-0.25,-0.27,-0.28,-0.285,-0.285,-0.28,-0.27,-0.27,-0.27,-0.285,-0.28,-0.275,-0.27,-0.265,-0.275,-0.29,-0.285,-0.285,-0.275,-0.27,-0.28,-0.295,-0.28,-0.27,-0.27,-0.275,-0.285,-0.3,-0.295,-0.29,-0.295,-0.3,-0.29,-0.305,-0.295,-0.29,-0.295,-0.29,-0.31,-0.32,-0.315,-0.315,-0.3,-0.305,-0.315,-0.33,-0.32,-0.305,-0.315,-0.305,-0.315,-0.325,-0.31,-0.295,-0.3,-0.305,-0.31,-0.325,-0.315,-0.315,-0.305,-0.305,-0.325,-0.32,N
0.835,0.72,0.41,0.03,-0.255,-0.415,-0.47,-0.465,-0.435,-0.395,-0.375,-0.37,-0.375,-0.375,-0.39,-0.4,-0.38,-0.385,-0.385,-0.385,-0.385,-0.37,-0.37,-0.36,-0.38,-0.38,-0.385,-0.37,-0.37,-0.365,-0.375,-0.385,-0.39,-0.39,-0.385,-0.385,-0.395,-0.39,-0.4,-0.405,-0.39,-0.395,-0.39,-0.405,-0.405,-0.4,-0.375,-0.38,-0.39,-0.395,-0.395,-0.39,-0.39,-0.385,-0.405,-0.4,-0.405,-0.395,-0.39,-0.395,-0.39,-0.4,-0.405,-0.405,-0.39,-0.39,-0.395,-0.4,-0.4,-0.395,-0.38,-0.37,-0.38,-0.385,-0.395,-0.39,-0.38,-0.38,-0.385,-0.39,-0.39,-0.4,-0.4,-0.405,-0.415,-0.42,-0.43,-0.43,-0.425,-0.42,-0.43,-0.445,-0.465,-0.455,-0.44,-0.425,-0.435,-0.45,-0.44,-0.445,-0.425,-0.425,-0.425,-0.43,-0.43,-0.415,-0.415,-0.385,-0.375,-0.385,-0.37,-0.36,-0.35,-0.335,-0.335,-0.325,-0.32,-0.325,-0.305,-0.295,-0.3,-0.29,-0.295,-0.29,-0.29,-0.285,-0.285,-0.285,-0.29,-0.29,-0.285,-0.27,-0.27,-0.28,-0.29,-0.285,-0.275,-0.275,-0.275,-0.29,-0.305,-0.305,-0.3,-0.28,-0.29,-0.305,-0.315,-0.31,-0.295,-0.29,-0.3,-0.305,-0.305,-0.31,-0.3,-0.295,-0.305,-0.305,-0.315,-0.31,-0.31,-0.295,-0.3,-0.305,-0.31,-0.305,-0.305,-0.295,-0.3,-0.315,-0.325,-0.32,-0.32,-0.315,-0.31,-0.325,-0.335,-0.33,-0.32,-0.32,-0.31,-0.33,-0.33,-0.325,-0.31,-0.305,-0.305,N
0.885,0.935,0.835,0.525,0.12,-0.23,-0.425,-0.455,-0.42,-0.38,-0.36,-0.365,-0.375,-0.38,-0.355,-0.355,-0.37,-0.375,-0.385,-0.38,-0.365,-0.37,-0.37,-0.365,-0.38,-0.37,-0.375,-0.365,-0.37,-0.38,-0.375,-0.365,-0.36,-0.36,-0.355,-0.355,-0.37,-0.365,-0.355,-0.35,-0.35,-0.35,-0.36,-0.36,-0.36,-0.35,-0.355,-0.365,-0.37,-0.36,-0.35,-0.355,-0.35,-0.355,-0.37,-0.375,-0.36,-0.35,-0.345,-0.35,-0.37,-0.37,-0.355,-0.35,-0.345,-0.36,-0.37,-0.365,-0.36,-0.35,-0.355,-0.365,-0.365,-0.37,-0.365,-0.35,-0.35,-0.36,-0.36,-0.355,-0.345,-0.35,-0.345,-0.355,-0.37,-0.365,-0.355,-0.36,-0.365,-0.365,-0.38,-0.385,-0.375,-0.37,-0.375,-0.385,-0.395,-0.375,-0.385,-0.38,-0.37,-0.385,-0.385,-0.38,-0.37,-0.36,-0.35,-0.335,-0.33,-0.315,-0.295,-0.29,-0.29,-0.285,-0.29,-0.28,-0.28,-0.26,-0.255,-0.27,-0.275,-0.26,-0.25,-0.245,-0.25,-0.26,-0.265,-0.245,-0.235,-0.245,-0.24,-0.25,-0.265,-0.25,-0.25,-0.25,-0.25,-0.255,-0.265,-0.26,-0.24,-0.25,-0.245,-0.25,-0.27,-0.265,-0.27,-0.265,-0.265,-0.275,-0.285,-0.275,-0.265,-0.27,-0.27,-0.28,-0.285,-0.285,-0.28,-0.285,-0.28,-0.285,-0.3,-0.29,-0.285,-0.27,-0.28,-0.295,-0.29,-0.29,-0.295,-0.29,-0.285,-0.305,-0.315,-0.31,-0.31,-0.29,-0.295,-0.31,-0.32,-0.315,-0.31,-0.3,-0.3,-0.315,-0.32,N
0.86,0.89,0.73,0.425,0.015,-0.285,-0.435,-0.45,-0.435,-0.385,-0.38,-0.37,-0.37,-0.37,-0.36,-0.36,-0.37,-0.385,-0.365,-0.36,-0.365,-0.365,-0.375,-0.385,-0.36,-0.365,-0.355,-0.375,-0.38,-0.375,-0.355,-0.355,-0.36,-0.365,-0.38,-0.37,-0.355,-0.35,-0.355,-0.365,-0.38,-0.365,-0.355,-0.355,-0.365,-0.385,-0.39,-0.375,-0.355,-0.365,-0.36,-0.355,-0.365,-0.365,-0.355,-0.345,-0.345,-0.365,-0.36,-0.375,-0.355,-0.36,-0.365,-0.365,-0.37,-0.36,-0.355,-0.36,-0.365,-0.385,-0.38,-0.365,-0.355,-0.335,-0.36,-0.36,-0.385,-0.38,-0.375,-0.36,-0.36,-0.365,-0.375,-0.365,-0.355,-0.36,-0.35,-0.36,-0.37,-0.37,-0.365,-0.37,-0.38,-0.39,-0.385,-0.38,-0.37,-0.37,-0.365,-0.365,-0.39,-0.375,-0.37,-0.355,-0.365,-0.36,-0.37,-0.35,-0.34,-0.325,-0.32,-0.315,-0.325,-0.31,-0.295,-0.285,-0.29,-0.29,-0.275,-0.27,-0.265,-0.26,-0.26,-0.275,-0.275,-0.285,-0.26,-0.26,-0.265,-0.27,-0.28,-0.275,-0.255,-0.255,-0.245,-0.255,-0.26,-0.255,-0.255,-0.26,-0.265,-0.28,-0.295,-0.29,-0.275,-0.28,-0.28,-0.28,-0.285,-0.285,-0.28,-0.27,-0.285,-0.3,-0.31,-0.3,-0.29,-0.28,-0.3,-0.29,-0.31,-0.3,-0.295,-0.29,-0.285,-0.295,-0.325,-0.315,-0.31,-0.305,-0.3,-0.315,-0.33,-0.32,-0.32,-0.315,-0.32,-0.325,-0.335,-0.33,-0.325,-0.31,-0.315,-0.315,-0.335,-0.32,-0.31,N
0.815,0.85,0.75,0.485,0.11,-0.21,-0.39,-0.46,-0.485,-0.47,-0.45,-0.425,-0.415,-0.405,-0.415,-0.415,-0.42,-0.4,-0.395,-0.385,-0.395,-0.4,-0.42,-0.41,-0.4,-0.4,-0.405,-0.405,-0.435,-0.42,-0.41,-0.405,-0.415,-0.43,-0.44,-0.435,-0.415,-0.42,-0.43,-0.415,-0.43,-0.425,-0.42,-0.42,-0.415,-0.425,-0.425,-0.42,-0.41,-0.41,-0.41,-0.42,-0.43,-0.42,-0.415,-0.395,-0.405,-0.415,-0.43,-0.42,-0.42,-0.415,-0.42,-0.425,-0.44,-0.43,-0.425,-0.415,-0.42,-0.425,-0.44,-0.43,-0.43,-0.425,-0.42,-0.415,-0.425,-0.43,-0.425,-0.415,-0.405,-0.405,-0.425,-0.415,-0.42,-0.42,-0.42,-0.435,-0.435,-0.44,-0.42,-0.43,-0.45,-0.455,-0.465,-0.465,-0.465,-0.465,-0.465,-0.47,-0.49,-0.485,-0.46,-0.455,-0.46,-0.455,-0.455,-0.44,-0.425,-0.415,-0.4,-0.405,-0.4,-0.385,-0.365,-0.365,-0.36,-0.37,-0.375,-0.355,-0.34,-0.33,-0.33,-0.33,-0.34,-0.335,-0.32,-0.305,-0.315,-0.32,-0.32,-0.32,-0.315,-0.31,-0.31,-0.315,-0.33,-0.32,-0.32,-0.31,-0.32,-0.33,-0.34,-0.33,-0.325,-0.325,-0.32,-0.34,-0.35,-0.34,-0.32,-0.315,-0.325,-0.34,-0.345,-0.345,-0.34,-0.33,-0.335,-0.345,-0.36,-0.355,-0.34,-0.33,-0.335,-0.345,-0.365,-0.37,-0.35,-0.34,-0.335,-0.36,-0.355,-0.34,-0.335,-0.335,-0.32,-0.335,-0.355,-0.35,-0.345,-0.34,-0.335,-0.35,-0.37,-0.36,-0.355,N
0.89,0.905,0.705,0.36,-0.03,-0.32,-0.455,-0.475,-0.44,-0.395,-0.38,-0.38,-0.385,-0.395,-0.4,-0.405,-0.395,-0.41,-0.39,-0.395,-0.405,-0.405,-0.395,-0.385,-0.385,-0.405,-0.405,-0.4,-0.385,-0.38,-0.385,-0.405,-0.41,-0.4,-0.395,-0.385,-0.395,-0.41,-0.405,-0.405,-0.395,-0.39,-0.395,-0.395,-0.405,-0.41,-0.4,-0.385,-0.395,-0.4,-0.395,-0.385,-0.385,-0.375,-0.375,-0.38,-0.395,-0.385,-0.39,-0.385,-0.38,-0.39,-0.4,-0.4,-0.39,-0.365,-0.375,-0.385,-0.4,-0.4,-0.39,-0.38,-0.375,-0.385,-0.395,-0.38,-0.37,-0.365,-0.365,-0.375,-0.385,-0.375,-0.375,-0.365,-0.37,-0.375,-0.4,-0.395,-0.405,-0.37,-0.385,-0.4,-0.41,-0.4,-0.395,-0.375,-0.38,-0.385,-0.405,-0.385,-0.375,-0.37,-0.365,-0.365,-0.35,-0.355,-0.32,-0.31,-0.31,-0.305,-0.31,-0.29,-0.28,-0.28,-0.27,-0.28,-0.285,-0.28,-0.285,-0.265,-0.27,-0.275,-0.29,-0.29,-0.275,-0.275,-0.27,-0.275,-0.29,-0.285,-0.285,-0.26,-0.26,-0.275,-0.285,-0.275,-0.265,-0.27,-0.28,-0.29,-0.295,-0.3,-0.28,-0.28,-0.275,-0.29,-0.3,-0.305,-0.285,-0.285,-0.285,-0.295,-0.3,-0.3,-0.295,-0.28,-0.295,-0.29,-0.305,-0.305,-0.3,-0.285,-0.285,-0.31,-0.315,-0.305,-0.305,-0.295,-0.3,-0.32,-0.335,-0.32,-0.32,-0.31,-0.315,-0.31,-0.33,-0.32,-0.31,-0.305,-0.305,-0.315,-0.315,-0.315,-0.305,-0.305,-0.3,N
0.82,0.825,0.64,0.32,-0.07,-0.34,-0.445,-0.445,-0.41,-0.38,-0.375,-0.375,-0.37,-0.365,-0.36,-0.37,-0.375,-0.37,-0.36,-0.35,-0.355,-0.365,-0.38,-0.38,-0.37,-0.365,-0.365,-0.38,-0.385,-0.39,-0.38,-0.375,-0.375,-0.38,-0.39,-0.38,-0.375,-0.37,-0.365,-0.375,-0.385,-0.365,-0.36,-0.35,-0.355,-0.355,-0.37,-0.365,-0.35,-0.36,-0.365,-0.365,-0.375,-0.375,-0.355,-0.355,-0.37,-0.375,-0.38,-0.385,-0.37,-0.37,-0.36,-0.37,-0.375,-0.365,-0.355,-0.345,-0.36,-0.355,-0.365,-0.36,-0.345,-0.335,-0.335,-0.355,-0.355,-0.35,-0.34,-0.35,-0.35,-0.355,-0.365,-0.36,-0.365,-0.365,-0.365,-0.37,-0.375,-0.38,-0.365,-0.35,-0.36,-0.365,-0.38,-0.375,-0.37,-0.36,-0.365,-0.375,-0.38,-0.375,-0.36,-0.355,-0.355,-0.355,-0.35,-0.35,-0.34,-0.33,-0.325,-0.335,-0.335,-0.33,-0.31,-0.3,-0.295,-0.305,-0.31,-0.285,-0.285,-0.265,-0.27,-0.285,-0.29,-0.275,-0.27,-0.255,-0.265,-0.265,-0.275,-0.27,-0.26,-0.25,-0.26,-0.27,-0.28,-0.29,-0.29,-0.28,-0.28,-0.29,-0.305,-0.3,-0.3,-0.295,-0.3,-0.29,-0.3,-0.31,-0.31,-0.295,-0.295,-0.3,-0.32,-0.315,-0.315,-0.3,-0.31,-0.305,-0.315,-0.305,-0.305,-0.305,-0.3,-0.305,-0.31,-0.315,-0.315,-0.315,-0.32,-0.335,-0.345,-0.335,-0.31,-0.325,-0.32,-0.33,-0.325,-0.325,-0.32,-0.32,-0.315,-0.325,-0.345,-0.335,-0.325,N
0.925,0.97,0.885,0.69,0.415,0.105,-0.15,-0.345,-0.435,-0.465,-0.455,-0.425,-0.415,-0.395,-0.375,-0.37,-0.395,-0.4,-0.4,-0.41,-0.4,-0.405,-0.4,-0.405,-0.395,-0.39,-0.38,-0.385,-0.405,-0.42,-0.405,-0.4,-0.39,-0.38,-0.395,-0.395,-0.4,-0.39,-0.41,-0.405,-0.41,-0.41,-0.395,-0.385,-0.395,-0.405,-0.42,-0.435,-0.415,-0.405,-0.41,-0.4,-0.41,-0.415,-0.41,-0.4,-0.405,-0.39,-0.39,-0.4,-0.39,-0.39,-0.39,-0.395,-0.42,-0.42,-0.415,-0.41,-0.395,-0.395,-0.4,-0.415,-0.415,-0.4,-0.4,-0.385,-0.39,-0.41,-0.395,-0.39,-0.38,-0.375,-0.39,-0.405,-0.42,-0.415,-0.415,-0.415,-0.435,-0.465,-0.455,-0.465,-0.46,-0.445,-0.455,-0.465,-0.475,-0.455,-0.46,-0.45,-0.455,-0.47,-0.455,-0.44,-0.42,-0.415,-0.42,-0.41,-0.41,-0.37,-0.36,-0.35,-0.35,-0.345,-0.335,-0.32,-0.3,-0.32,-0.315,-0.34,-0.325,-0.3,-0.3,-0.3,-0.31,-0.33,-0.31,-0.305,-0.3,-0.305,-0.315,-0.33,-0.31,-0.305,-0.31,-0.305,-0.31,-0.31,-0.31,-0.3,-0.305,-0.31,-0.31,-0.32,-0.315,-0.33,-0.315,-0.32,-0.34,-0.34,-0.335,-0.33,-0.32,-0.32,-0.325,-0.35,-0.34,-0.335,-0.335,-0.345,-0.35,-0.36,-0.36,-0.345,-0.335,-0.335,-0.335,-0.345,-0.335,-0.335,-0.33,-0.335,-0.335,-0.35,-0.345,-0.355,-0.345,-0.345,-0.355,-0.365,-0.36,-0.355,-0.345,-0.345,-0.345,-0.36,-0.345,N
0.895,0.895,0.71,0.35,-0.055,-0.35,-0.48,-0.49,-0.465,-0.415,-0.405,-0.395,-0.405,-0.42,-0.395,-0.415,-0.4,-0.39,-0.385,-0.395,-0.405,-0.395,-0.4,-0.39,-0.39,-0.4,-0.415,-0.405,-0.39,-0.38,-0.38,-0.405,-0.39,-0.4,-0.39,-0.38,-0.38,-0.405,-0.4,-0.41,-0.4,-0.395,-0.4,-0.4,-0.405,-0.39,-0.38,-0.385,-0.385,-0.39,-0.405,-0.4,-0.4,-0.39,-0.39,-0.41,-0.41,-0.405,-0.4,-0.41,-0.405,-0.41,-0.415,-0.41,-0.405,-0.395,-0.405,-0.4,-0.4,-0.395,-0.405,-0.38,-0.385,-0.39,-0.41,-0.395,-0.39,-0.38,-0.385,-0.405,-0.405,-0.405,-0.4,-0.41,-0.41,-0.415,-0.435,-0.43,-0.415,-0.42,-0.42,-0.44,-0.44,-0.435,-0.435,-0.435,-0.43,-0.445,-0.445,-0.42,-0.425,-0.41,-0.405,-0.4,-0.41,-0.38,-0.37,-0.35,-0.34,-0.355,-0.345,-0.34,-0.315,-0.32,-0.3,-0.3,-0.315,-0.305,-0.3,-0.28,-0.29,-0.29,-0.3,-0.295,-0.295,-0.28,-0.285,-0.29,-0.295,-0.285,-0.28,-0.275,-0.265,-0.28,-0.295,-0.28,-0.28,-0.275,-0.29,-0.295,-0.31,-0.29,-0.29,-0.275,-0.27,-0.295,-0.315,-0.31,-0.3,-0.295,-0.29,-0.3,-0.315,-0.305,-0.3,-0.29,-0.31,-0.315,-0.33,-0.31,-0.305,-0.295,-0.295,-0.305,-0.325,-0.315,-0.315,-0.31,-0.3,-0.315,-0.335,-0.325,-0.325,-0.315,-0.31,-0.32,-0.335,-0.325,-0.31,-0.305,-0.305,-0.32,-0.325,-0.315,-0.31,-0.3,-0.315,N
0.955,0.975,0.825,0.48,0.055,-0.27,-0.455,-0.485,-0.44,-0.405,-0.375,-0.375,-0.39,-0.38,-0.36,-0.355,-0.345,-0.365,-0.375,-0.37,-0.37,-0.355,-0.37,-0.375,-0.38,-0.385,-0.38,-0.38,-0.38,-0.385,-0.395,-0.395,-0.39,-0.385,-0.38,-0.38,-0.395,-0.39,-0.38,-0.37,-0.375,-0.385,-0.38,-0.375,-0.365,-0.36,-0.365,-0.365,-0.385,-0.37,-0.365,-0.355,-0.385,-0.395,-0.395,-0.385,-0.37,-0.38,-0.37,-0.375,-0.39,-0.385,-0.38,-0.37,-0.37,-0.385,-0.385,-0.38,-0.385,-0.37,-0.375,-0.375,-0.38,-0.38,-0.355,-0.36,-0.365,-0.37,-0.38,-0.37,-0.375,-0.36,-0.37,-0.38,-0.385,-0.375,-0.375,-0.37,-0.37,-0.385,-0.4,-0.395,-0.385,-0.395,-0.38,-0.4,-0.4,-0.4,-0.39,-0.39,-0.385,-0.4,-0.4,-0.385,-0.38,-0.38,-0.385,-0.385,-0.405,-0.395,-0.38,-0.37,-0.37,-0.38,-0.365,-0.355,-0.335,-0.325,-0.32,-0.32,-0.33,-0.315,-0.3,-0.295,-0.285,-0.295,-0.29,-0.285,-0.27,-0.26,-0.265,-0.275,-0.28,-0.275,-0.27,-0.27,-0.26,-0.27,-0.28,-0.285,-0.275,-0.265,-0.27,-0.285,-0.285,-0.285,-0.275,-0.28,-0.275,-0.285,-0.295,-0.295,-0.285,-0.28,-0.27,-0.285,-0.275,-0.29,-0.285,-0.28,-0.29,-0.3,-0.31,-0.31,-0.31,-0.3,-0.3,-0.315,-0.325,-0.315,-0.305,-0.31,-0.31,-0.315,-0.33,-0.325,-0.32,-0.32,-0.315,-0.325,-0.33,-0.335,-0.325,-0.32,-0.32,-0.315,-0.32,N
0.875,0.815,0.59,0.22,-0.15,-0.38,-0.47,-0.465,-0.425,-0.385,-0.375,-0.395,-0.385,-0.375,-0.355,-0.37,-0.36,-0.365,-0.37,-0.37,-0.36,-0.365,-0.375,-0.38,-0.37,-0.37,-0.37,-0.38,-0.385,-0.395,-0.39,-0.38,-0.375,-0.375,-0.395,-0.4,-0.395,-0.37,-0.37,-0.37,-0.365,-0.39,-0.385,-0.375,-0.36,-0.38,-0.39,-0.39,-0.385,-0.375,-0.375,-0.375,-0.38,-0.39,-0.38,-0.365,-0.38,-0.38,-0.385,-0.39,-0.39,-0.38,-0.38,-0.385,-0.395,-0.4,-0.385,-0.38,-0.36,-0.37,-0.375,-0.37,-0.385,-0.37,-0.365,-0.36,-0.365,-0.375,-0.38,-0.365,-0.37,-0.36,-0.37,-0.395,-0.385,-0.385,-0.39,-0.39,-0.39,-0.41,-0.39,-0.38,-0.39,-0.38,-0.395,-0.405,-0.405,-0.395,-0.39,-0.39,-0.41,-0.415,-0.39,-0.38,-0.39,-0.385,-0.39,-0.39,-0.38,-0.36,-0.355,-0.345,-0.34,-0.345,-0.33,-0.32,-0.315,-0.3,-0.305,-0.32,-0.3,-0.275,-0.275,-0.275,-0.275,-0.28,-0.285,-0.275,-0.275,-0.28,-0.295,-0.305,-0.305,-0.3,-0.29,-0.285,-0.295,-0.31,-0.3,-0.3,-0.295,-0.3,-0.305,-0.31,-0.315,-0.305,-0.31,-0.31,-0.315,-0.32,-0.305,-0.29,-0.285,-0.295,-0.3,-0.315,-0.31,-0.315,-0.32,-0.32,-0.33,-0.34,-0.32,-0.31,-0.32,-0.32,-0.33,-0.345,-0.34,-0.33,-0.33,-0.32,-0.33,-0.325,-0.325,-0.32,-0.315,-0.32,-0.33,-0.345,-0.32,-0.315,-0.315,-0.32,-0.325,-0.335,-0.34,N
0.84,0.88,0.725,0.4,0.0,-0.28,-0.435,-0.51,-0.485,-0.46,-0.43,-0.405,-0.41,-0.41,-0.415,-0.405,-0.415,-0.395,-0.39,-0.395,-0.405,-0.41,-0.41,-0.395,-0.39,-0.4,-0.4,-0.395,-0.4,-0.385,-0.385,-0.395,-0.41,-0.42,-0.41,-0.4,-0.39,-0.41,-0.415,-0.425,-0.425,-0.405,-0.4,-0.425,-0.415,-0.415,-0.41,-0.405,-0.4,-0.41,-0.405,-0.415,-0.41,-0.4,-0.395,-0.4,-0.405,-0.405,-0.415,-0.405,-0.4,-0.405,-0.41,-0.42,-0.415,-0.4,-0.395,-0.4,-0.415,-0.42,-0.41,-0.4,-0.395,-0.4,-0.415,-0.41,-0.415,-0.415,-0.405,-0.41,-0.42,-0.44,-0.43,-0.43,-0.425,-0.435,-0.435,-0.44,-0.45,-0.45,-0.45,-0.465,-0.47,-0.485,-0.465,-0.455,-0.45,-0.45,-0.47,-0.485,-0.46,-0.445,-0.435,-0.425,-0.43,-0.43,-0.415,-0.385,-0.365,-0.375,-0.36,-0.36,-0.35,-0.335,-0.335,-0.325,-0.335,-0.335,-0.335,-0.31,-0.31,-0.315,-0.315,-0.32,-0.315,-0.295,-0.295,-0.3,-0.305,-0.33,-0.325,-0.315,-0.325,-0.32,-0.33,-0.335,-0.335,-0.33,-0.305,-0.325,-0.325,-0.325,-0.325,-0.31,-0.305,-0.315,-0.325,-0.33,-0.325,-0.325,-0.34,-0.34,-0.34,-0.345,-0.34,-0.325,-0.33,-0.32,-0.325,-0.34,-0.34,-0.335,-0.34,-0.35,-0.355,-0.36,-0.35,-0.345,-0.345,-0.36,-0.355,-0.37,-0.365,-0.35,-0.36,-0.35,-0.36,-0.37,-0.36,-0.355,-0.345,-0.345,-0.35,-0.35,-0.345,-0.335,-0.33,N
0.935,0.84,0.555,0.14,-0.2,-0.405,-0.485,-0.485,-0.45,-0.385,-0.385,-0.385,-0.39,-0.385,-0.395,-0.39,-0.385,-0.385,-0.39,-0.395,-0.39,-0.39,-0.395,-0.38,-0.385,-0.39,-0.405,-0.4,-0.395,-0.39,-0.39,-0.39,-0.405,-0.375,-0.39,-0.38,-0.39,-0.385,-0.39,-0.385,-0.37,-0.365,-0.365,-0.38,-0.39,-0.39,-0.385,-0.375,-0.38,-0.39,-0.39,-0.395,-0.375,-0.385,-0.385,-0.4,-0.39,-0.385,-0.385,-0.375,-0.38,-0.395,-0.405,-0.385,-0.38,-0.375,-0.38,-0.38,-0.39,-0.39,-0.38,-0.355,-0.355,-0.37,-0.385,-0.375,-0.385,-0.375,-0.39,-0.39,-0.4,-0.4,-0.385,-0.39,-0.39,-0.405,-0.415,-0.405,-0.405,-0.405,-0.41,-0.425,-0.43,-0.42,-0.405,-0.41,-0.41,-0.41,-0.41,-0.4,-0.385,-0.37,-0.375,-0.36,-0.365,-0.355,-0.335,-0.315,-0.315,-0.31,-0.315,-0.295,-0.29,-0.27,-0.285,-0.29,-0.29,-0.28,-0.275,-0.255,-0.27,-0.275,-0.275,-0.28,-0.255,-0.245,-0.26,-0.255,-0.265,-0.26,-0.26,-0.24,-0.25,-0.26,-0.275,-0.265,-0.26,-0.26,-0.285,-0.285,-0.28,-0.285,-0.285,-0.265,-0.28,-0.275,-0.295,-0.295,-0.28,-0.275,-0.28,-0.285,-0.31,-0.305,-0.28,-0.29,-0.285,-0.29,-0.3,-0.31,-0.295,-0.295,-0.29,-0.315,-0.31,-0.31,-0.315,-0.305,-0.31,-0.32,-0.325,-0.31,-0.305,-0.31,-0.305,-0.315,-0.315,-0.305,-0.305,-0.3,-0.3,-0.315,-0.32,-0.305,-0.295,-0.3,-0.305,N
0.93,1.035,1.05,0.92,0.57,0.115,-0.245,-0.42,-0.425,-0.39,-0.355,-0.36,-0.365,-0.355,-0.35,-0.36,-0.365,-0.39,-0.385,-0.375,-0.37,-0.37,-0.38,-0.395,-0.385,-0.375,-0.365,-0.37,-0.385,-0.4,-0.385,-0.385,-0.37,-0.375,-0.385,-0.395,-0.39,-0.37,-0.36,-0.36,-0.365,-0.37,-0.37,-0.365,-0.355,-0.36,-0.37,-0.38,-0.38,-0.365,-0.37,-0.365,-0.38,-0.39,-0.38,-0.38,-0.365,-0.365,-0.375,-0.385,-0.385,-0.375,-0.36,-0.355,-0.37,-0.375,-0.37,-0.37,-0.355,-0.365,-0.36,-0.385,-0.385,-0.38,-0.36,-0.365,-0.375,-0.38,-0.37,-0.37,-0.37,-0.36,-0.385,-0.395,-0.38,-0.375,-0.365,-0.375,-0.385,-0.39,-0.375,-0.37,-0.37,-0.37,-0.37,-0.385,-0.38,-0.385,-0.37,-0.37,-0.37,-0.38,-0.37,-0.345,-0.34,-0.325,-0.335,-0.325,-0.305,-0.295,-0.295,-0.3,-0.3,-0.305,-0.295,-0.28,-0.285,-0.275,-0.265,-0.28,-0.275,-0.255,-0.265,-0.26,-0.265,-0.285,-0.285,-0.275,-0.26,-0.265,-0.285,-0.285,-0.29,-0.275,-0.275,-0.265,-0.275,-0.305,-0.29,-0.285,-0.285,-0.275,-0.295,-0.3,-0.28,-0.28,-0.27,-0.28,-0.295,-0.3,-0.31,-0.315,-0.305,-0.305,-0.335,-0.335,-0.32,-0.32,-0.31,-0.32,-0.33,-0.33,-0.33,-0.33,-0.31,-0.315,-0.32,-0.335,-0.33,-0.315,-0.31,-0.315,-0.33,-0.34,-0.335,-0.34,-0.305,-0.32,-0.33,-0.34,-0.335,-0.32,-0.32,-0.33,-0.33,-0.335,-0.325,N
0.88,0.76,0.46,0.07,-0.24,-0.425,-0.485,-0.48,-0.43,-0.4,-0.395,-0.4,-0.4,-0.395,-0.39,-0.375,-0.365,-0.37,-0.385,-0.395,-0.405,-0.39,-0.39,-0.385,-0.38,-0.395,-0.4,-0.38,-0.38,-0.375,-0.385,-0.395,-0.405,-0.4,-0.395,-0.395,-0.38,-0.395,-0.39,-0.395,-0.4,-0.39,-0.385,-0.39,-0.4,-0.39,-0.38,-0.38,-0.385,-0.38,-0.385,-0.37,-0.375,-0.37,-0.37,-0.375,-0.385,-0.385,-0.375,-0.385,-0.38,-0.4,-0.405,-0.4,-0.385,-0.38,-0.375,-0.395,-0.405,-0.405,-0.395,-0.39,-0.38,-0.385,-0.395,-0.375,-0.375,-0.38,-0.385,-0.375,-0.385,-0.385,-0.375,-0.38,-0.4,-0.405,-0.415,-0.41,-0.415,-0.4,-0.41,-0.41,-0.415,-0.415,-0.415,-0.415,-0.415,-0.425,-0.445,-0.43,-0.42,-0.415,-0.4,-0.41,-0.405,-0.385,-0.375,-0.35,-0.35,-0.35,-0.355,-0.335,-0.33,-0.305,-0.31,-0.325,-0.325,-0.315,-0.315,-0.31,-0.31,-0.305,-0.315,-0.32,-0.31,-0.305,-0.305,-0.305,-0.31,-0.295,-0.295,-0.29,-0.285,-0.285,-0.305,-0.305,-0.295,-0.29,-0.295,-0.295,-0.305,-0.305,-0.3,-0.3,-0.3,-0.32,-0.32,-0.325,-0.32,-0.32,-0.305,-0.325,-0.32,-0.315,-0.32,-0.31,-0.315,-0.31,-0.315,-0.315,-0.315,-0.305,-0.31,-0.315,-0.325,-0.33,-0.33,-0.325,-0.325,-0.33,-0.35,-0.35,-0.33,-0.325,-0.33,-0.35,-0.36,-0.35,-0.34,-0.33,-0.33,-0.33,-0.35,-0.35,-0.34,-0.325,-0.32,N
0.845,0.795,0.55,0.12,-0.285,-0.52,-0.585,-0.56,-0.52,-0.5,-0.47,-0.475,-0.47,-0.46,-0.48,-0.485,-0.485,-0.47,-0.465,-0.475,-0.48,-0.49,-0.485,-0.475,-0.47,-0.475,-0.49,-0.495,-0.495,-0.495,-0.48,-0.49,-0.485,-0.495,-0.49,-0.485,-0.48,-0.475,-0.485,-0.49,-0.485,-0.48,-0.475,-0.485,-0.485,-0.51,-0.495,-0.49,-0.485,-0.475,-0.475,-0.495,-0.475,-0.475,-0.475,-0.47,-0.495,-0.495,-0.495,-0.49,-0.47,-0.485,-0.495,-0.505,-0.495,-0.49,-0.49,-0.48,-0.49,-0.5,-0.495,-0.49,-0.475,-0.48,-0.49,-0.5,-0.48,-0.485,-0.475,-0.48,-0.48,-0.48,-0.47,-0.465,-0.46,-0.475,-0.475,-0.48,-0.49,-0.48,-0.47,-0.48,-0.495,-0.505,-0.505,-0.485,-0.485,-0.485,-0.495,-0.505,-0.505,-0.49,-0.485,-0.5,-0.49,-0.5,-0.48,-0.47,-0.445,-0.45,-0.45,-0.45,-0.425,-0.405,-0.385,-0.385,-0.395,-0.39,-0.385,-0.375,-0.37,-0.375,-0.385,-0.39,-0.39,-0.385,-0.37,-0.37,-0.39,-0.385,-0.385,-0.385,-0.375,-0.375,-0.38,-0.39,-0.37,-0.38,-0.365,-0.37,-0.375,-0.39,-0.38,-0.365,-0.365,-0.37,-0.375,-0.395,-0.39,-0.39,-0.38,-0.39,-0.405,-0.415,-0.415,-0.41,-0.395,-0.395,-0.41,-0.42,-0.41,-0.415,-0.4,-0.42,-0.425,-0.43,-0.43,-0.425,-0.41,-0.41,-0.41,-0.425,-0.425,-0.41,-0.41,-0.42,-0.42,-0.445,-0.45,-0.435,-0.43,-0.43,-0.44,-0.45,-0.445,-0.44,-0.42,N
0.725,0.715,0.53,0.185,-0.195,-0.455,-0.59,-0.615,-0.585,-0.545,-0.535,-0.535,-0.535,-0.525,-0.505,-0.515,-0.505,-0.515,-0.515,-0.49,-0.495,-0.5,-0.49,-0.52,-0.51,-0.52,-0.505,-0.505,-0.505,-0.515,-0.515,-0.5,-0.51,-0.515,-0.525,-0.53,-0.525,-0.535,-0.52,-0.525,-0.52,-0.53,-0.52,-0.52,-0.51,-0.515,-0.51,-0.53,-0.53,-0.52,-0.51,-0.505,-0.525,-0.53,-0.525,-0.51,-0.495,-0.5,-0.51,-0.52,-0.52,-0.515,-0.505,-0.5,-0.51,-0.52,-0.505,-0.515,-0.51,-0.52,-0.505,-0.505,-0.515,-0.525,-0.5,-0.495,-0.495,-0.505,-0.495,-0.49,-0.475,-0.49,-0.495,-0.51,-0.505,-0.5,-0.5,-0.5,-0.505,-0.515,-0.505,-0.505,-0.515,-0.51,-0.525,-0.535,-0.535,-0.54,-0.52,-0.54,-0.54,-0.56,-0.55,-0.54,-0.545,-0.54,-0.545,-0.55,-0.555,-0.53,-0.52,-0.515,-0.5,-0.505,-0.505,-0.485,-0.465,-0.47,-0.46,-0.46,-0.455,-0.435,-0.43,-0.425,-0.43,-0.44,-0.44,-0.435,-0.41,-0.41,-0.415,-0.42,-0.41,-0.4,-0.395,-0.39,-0.405,-0.41,-0.405,-0.39,-0.4,-0.405,-0.415,-0.415,-0.415,-0.41,-0.4,-0.41,-0.41,-0.425,-0.415,-0.395,-0.405,-0.4,-0.415,-0.42,-0.425,-0.41,-0.4,-0.405,-0.42,-0.42,-0.415,-0.41,-0.41,-0.42,-0.425,-0.44,-0.435,-0.43,-0.43,-0.43,-0.43,-0.445,-0.45,-0.435,-0.425,-0.42,-0.425,-0.43,-0.455,-0.45,-0.44,-0.43,-0.44,-0.44,-0.44,N
1.005,1.045,0.975,0.74,0.35,-0.07,-0.405,-0.55,-0.56,-0.535,-0.5,-0.455,-0.455,-0.445,-0.445,-0.44,-0.455,-0.465,-0.465,-0.465,-0.465,-0.465,-0.48,-0.485,-0.48,-0.47,-0.47,-0.46,-0.46,-0.475,-0.475,-0.47,-0.455,-0.455,-0.46,-0.46,-0.46,-0.455,-0.45,-0.45,-0.455,-0.475,-0.465,-0.465,-0.45,-0.45,-0.455,-0.48,-0.47,-0.445,-0.435,-0.44,-0.45,-0.46,-0.46,-0.445,-0.43,-0.425,-0.45,-0.46,-0.455,-0.45,-0.44,-0.445,-0.44,-0.45,-0.445,-0.44,-0.435,-0.45,-0.45,-0.455,-0.455,-0.46,-0.45,-0.435,-0.465,-0.465,-0.45,-0.435,-0.43,-0.435,-0.45,-0.465,-0.465,-0.46,-0.455,-0.455,-0.46,-0.47,-0.47,-0.46,-0.45,-0.455,-0.46,-0.475,-0.46,-0.46,-0.45,-0.45,-0.445,-0.445,-0.435,-0.425,-0.42,-0.415,-0.395,-0.405,-0.385,-0.385,-0.37,-0.36,-0.36,-0.36,-0.355,-0.355,-0.335,-0.335,-0.345,-0.34,-0.335,-0.32,-0.32,-0.325,-0.325,-0.335,-0.33,-0.325,-0.325,-0.335,-0.35,-0.36,-0.365,-0.345,-0.335,-0.35,-0.35,-0.355,-0.36,-0.345,-0.33,-0.33,-0.345,-0.355,-0.355,-0.34,-0.345,-0.35,-0.36,-0.37,-0.375,-0.36,-0.365,-0.36,-0.365,-0.38,-0.375,-0.365,-0.365,-0.365,-0.375,-0.39,-0.385,-0.375,-0.37,-0.37,-0.375,-0.39,-0.38,-0.37,-0.345,-0.36,-0.37,-0.385,-0.375,-0.375,-0.37,-0.37,-0.395,-0.4,-0.385,-0.39,-0.38,-0.385,-0.38,-0.395,-0.39,N
0.855,0.835,0.62,0.225,-0.16,-0.415,-0.525,-0.515,-0.47,-0.435,-0.415,-0.415,-0.41,-0.405,-0.415,-0.42,-0.415,-0.4,-0.415,-0.42,-0.43,-0.42,-0.405,-0.41,-0.4,-0.415,-0.43,-0.42,-0.425,-0.405,-0.41,-0.42,-0.435,-0.43,-0.425,-0.415,-0.42,-0.425,-0.435,-0.425,-0.42,-0.41,-0.41,-0.42,-0.425,-0.415,-0.405,-0.4,-0.405,-0.4,-0.41,-0.42,-0.405,-0.395,-0.415,-0.41,-0.43,-0.425,-0.415,-0.415,-0.41,-0.42,-0.43,-0.425,-0.41,-0.41,-0.4,-0.405,-0.415,-0.42,-0.405,-0.4,-0.39,-0.4,-0.4,-0.405,-0.395,-0.39,-0.405,-0.4,-0.43,-0.43,-0.42,-0.415,-0.405,-0.425,-0.435,-0.43,-0.425,-0.415,-0.425,-0.425,-0.44,-0.435,-0.415,-0.415,-0.425,-0.43,-0.435,-0.41,-0.395,-0.385,-0.375,-0.38,-0.385,-0.38,-0.365,-0.345,-0.345,-0.36,-0.365,-0.345,-0.34,-0.325,-0.325,-0.33,-0.34,-0.335,-0.325,-0.31,-0.305,-0.31,-0.335,-0.33,-0.32,-0.315,-0.31,-0.31,-0.315,-0.305,-0.305,-0.295,-0.3,-0.315,-0.33,-0.33,-0.315,-0.305,-0.325,-0.335,-0.335,-0.34,-0.335,-0.32,-0.34,-0.355,-0.35,-0.36,-0.35,-0.34,-0.335,-0.345,-0.36,-0.35,-0.35,-0.345,-0.345,-0.355,-0.365,-0.36,-0.36,-0.355,-0.36,-0.37,-0.375,-0.385,-0.375,-0.37,-0.38,-0.385,-0.385,-0.38,-0.38,-0.37,-0.37,-0.375,-0.37,-0.37,-0.36,-0.36,-0.355,-0.38,-0.4,-0.395,-0.39,-0.38,-0.38,N
0.795,0.72,0.435,0.065,-0.25,-0.445,-0.535,-0.55,-0.51,-0.48,-0.45,-0.45,-0.445,-0.44,-0.455,-0.45,-0.45,-0.44,-0.44,-0.445,-0.45,-0.455,-0.445,-0.435,-0.43,-0.44,-0.455,-0.445,-0.445,-0.44,-0.435,-0.46,-0.46,-0.455,-0.465,-0.45,-0.445,-0.47,-0.485,-0.465,-0.46,-0.46,-0.45,-0.45,-0.47,-0.46,-0.455,-0.44,-0.435,-0.445,-0.45,-0.435,-0.44,-0.445,-0.445,-0.45,-0.45,-0.44,-0.435,-0.44,-0.445,-0.455,-0.475,-0.46,-0.45,-0.435,-0.44,-0.445,-0.455,-0.45,-0.435,-0.435,-0.45,-0.45,-0.46,-0.455,-0.44,-0.43,-0.425,-0.435,-0.46,-0.465,-0.445,-0.44,-0.44,-0.47,-0.48,-0.49,-0.48,-0.475,-0.485,-0.49,-0.495,-0.49,-0.49,-0.49,-0.495,-0.495,-0.51,-0.495,-0.495,-0.475,-0.475,-0.465,-0.475,-0.465,-0.43,-0.41,-0.405,-0.395,-0.405,-0.395,-0.37,-0.355,-0.365,-0.37,-0.37,-0.38,-0.37,-0.355,-0.36,-0.37,-0.37,-0.355,-0.34,-0.325,-0.325,-0.34,-0.345,-0.36,-0.345,-0.345,-0.355,-0.355,-0.365,-0.37,-0.365,-0.37,-0.37,-0.375,-0.375,-0.365,-0.36,-0.355,-0.355,-0.355,-0.375,-0.38,-0.385,-0.365,-0.365,-0.375,-0.38,-0.385,-0.385,-0.37,-0.38,-0.4,-0.41,-0.4,-0.385,-0.375,-0.38,-0.39,-0.41,-0.4,-0.395,-0.39,-0.39,-0.39,-0.4,-0.4,-0.39,-0.385,-0.39,-0.395,-0.395,-0.4,-0.4,-0.385,-0.39,-0.4,-0.4,-0.39,-0.38,-0.37,-0.37,N
0.955,0.91,0.66,0.27,-0.14,-0.425,-0.52,-0.515,-0.49,-0.465,-0.445,-0.43,-0.435,-0.435,-0.45,-0.455,-0.45,-0.45,-0.44,-0.445,-0.455,-0.46,-0.46,-0.45,-0.45,-0.445,-0.45,-0.465,-0.455,-0.44,-0.435,-0.435,-0.44,-0.46,-0.455,-0.435,-0.44,-0.455,-0.45,-0.46,-0.46,-0.45,-0.445,-0.44,-0.455,-0.465,-0.455,-0.445,-0.44,-0.435,-0.445,-0.455,-0.44,-0.425,-0.43,-0.43,-0.445,-0.45,-0.43,-0.435,-0.425,-0.43,-0.435,-0.45,-0.45,-0.45,-0.435,-0.45,-0.44,-0.455,-0.445,-0.44,-0.435,-0.45,-0.455,-0.455,-0.44,-0.44,-0.42,-0.42,-0.43,-0.445,-0.445,-0.425,-0.425,-0.42,-0.42,-0.44,-0.435,-0.43,-0.425,-0.435,-0.445,-0.46,-0.455,-0.445,-0.435,-0.435,-0.45,-0.455,-0.455,-0.445,-0.435,-0.45,-0.455,-0.445,-0.455,-0.44,-0.43,-0.415,-0.425,-0.43,-0.41,-0.395,-0.38,-0.365,-0.365,-0.37,-0.37,-0.35,-0.34,-0.335,-0.345,-0.355,-0.345,-0.34,-0.33,-0.34,-0.335,-0.355,-0.34,-0.335,-0.32,-0.325,-0.335,-0.355,-0.33,-0.325,-0.325,-0.325,-0.325,-0.35,-0.335,-0.325,-0.32,-0.325,-0.335,-0.335,-0.34,-0.325,-0.325,-0.33,-0.335,-0.345,-0.355,-0.34,-0.345,-0.34,-0.355,-0.36,-0.365,-0.36,-0.355,-0.355,-0.365,-0.37,-0.365,-0.365,-0.355,-0.355,-0.36,-0.37,-0.37,-0.37,-0.36,-0.365,-0.365,-0.385,-0.385,-0.385,-0.375,-0.38,-0.39,-0.4,-0.4,-0.385,-0.385,N
0.835,0.855,0.74,0.49,0.125,-0.19,-0.425,-0.535,-0.585,-0.585,-0.55,-0.505,-0.48,-0.46,-0.45,-0.44,-0.44,-0.435,-0.45,-0.45,-0.45,-0.445,-0.435,-0.45,-0.455,-0.46,-0.465,-0.435,-0.445,-0.45,-0.45,-0.46,-0.455,-0.445,-0.445,-0.465,-0.47,-0.45,-0.455,-0.425,-0.43,-0.43,-0.455,-0.44,-0.435,-0.425,-0.435,-0.435,-0.445,-0.45,-0.44,-0.44,-0.435,-0.44,-0.44,-0.445,-0.425,-0.42,-0.415,-0.425,-0.445,-0.45,-0.435,-0.425,-0.43,-0.45,-0.45,-0.44,-0.45,-0.425,-0.435,-0.445,-0.45,-0.445,-0.44,-0.425,-0.43,-0.45,-0.45,-0.445,-0.43,-0.43,-0.435,-0.435,-0.445,-0.445,-0.43,-0.425,-0.43,-0.445,-0.435,-0.43,-0.43,-0.425,-0.42,-0.425,-0.44,-0.44,-0.435,-0.435,-0.435,-0.44,-0.455,-0.455,-0.435,-0.425,-0.43,-0.43,-0.44,-0.43,-0.43,-0.42,-0.42,-0.43,-0.425,-0.415,-0.385,-0.375,-0.365,-0.365,-0.37,-0.355,-0.365,-0.35,-0.34,-0.345,-0.345,-0.35,-0.355,-0.345,-0.335,-0.335,-0.345,-0.345,-0.34,-0.33,-0.335,-0.355,-0.36,-0.36,-0.355,-0.345,-0.34,-0.345,-0.35,-0.355,-0.34,-0.34,-0.34,-0.35,-0.375,-0.36,-0.355,-0.34,-0.345,-0.36,-0.385,-0.375,-0.365,-0.36,-0.365,-0.385,-0.395,-0.395,-0.38,-0.38,-0.375,-0.38,-0.4,-0.395,-0.375,-0.375,-0.385,-0.395,-0.4,-0.41,-0.39,-0.385,-0.38,-0.39,-0.415,-0.41,-0.4,-0.395,-0.385,-0.4,-0.42,N
0.795,0.79,0.6,0.23,-0.145,-0.4,-0.52,-0.56,-0.55,-0.505,-0.465,-0.46,-0.455,-0.455,-0.45,-0.465,-0.46,-0.465,-0.47,-0.47,-0.47,-0.49,-0.485,-0.47,-0.465,-0.46,-0.465,-0.47,-0.48,-0.475,-0.465,-0.455,-0.475,-0.48,-0.46,-0.45,-0.44,-0.445,-0.445,-0.46,-0.455,-0.455,-0.465,-0.455,-0.48,-0.465,-0.465,-0.455,-0.455,-0.46,-0.475,-0.48,-0.47,-0.465,-0.455,-0.465,-0.45,-0.455,-0.45,-0.435,-0.43,-0.44,-0.445,-0.455,-0.455,-0.45,-0.44,-0.435,-0.455,-0.465,-0.455,-0.44,-0.44,-0.44,-0.44,-0.46,-0.455,-0.45,-0.43,-0.435,-0.455,-0.475,-0.475,-0.47,-0.46,-0.47,-0.465,-0.485,-0.49,-0.465,-0.46,-0.46,-0.475,-0.49,-0.5,-0.495,-0.485,-0.47,-0.485,-0.5,-0.5,-0.49,-0.475,-0.475,-0.465,-0.48,-0.455,-0.445,-0.425,-0.41,-0.405,-0.42,-0.42,-0.4,-0.375,-0.36,-0.36,-0.375,-0.36,-0.345,-0.325,-0.325,-0.34,-0.345,-0.36,-0.355,-0.355,-0.355,-0.365,-0.36,-0.355,-0.33,-0.335,-0.35,-0.345,-0.36,-0.355,-0.37,-0.34,-0.335,-0.335,-0.345,-0.35,-0.35,-0.34,-0.345,-0.36,-0.365,-0.36,-0.35,-0.35,-0.35,-0.365,-0.38,-0.375,-0.37,-0.37,-0.365,-0.365,-0.375,-0.38,-0.375,-0.37,-0.375,-0.39,-0.41,-0.4,-0.39,-0.365,-0.37,-0.375,-0.39,-0.385,-0.375,-0.365,-0.375,-0.395,-0.405,-0.405,-0.395,-0.39,-0.4,-0.4,-0.4,-0.405,-0.405,-0.39,N
0.885,0.88,0.68,0.325,-0.08,-0.355,-0.5,-0.55,-0.535,-0.485,-0.455,-0.44,-0.445,-0.44,-0.445,-0.44,-0.43,-0.425,-0.415,-0.435,-0.45,-0.445,-0.43,-0.425,-0.43,-0.44,-0.46,-0.455,-0.46,-0.455,-0.44,-0.45,-0.455,-0.46,-0.45,-0.435,-0.43,-0.44,-0.46,-0.46,-0.45,-0.44,-0.435,-0.435,-0.44,-0.44,-0.425,-0.425,-0.43,-0.435,-0.445,-0.445,-0.44,-0.435,-0.455,-0.44,-0.455,-0.445,-0.45,-0.44,-0.44,-0.445,-0.45,-0.445,-0.435,-0.43,-0.425,-0.43,-0.44,-0.435,-0.425,-0.43,-0.415,-0.435,-0.45,-0.44,-0.43,-0.425,-0.42,-0.435,-0.445,-0.44,-0.435,-0.43,-0.44,-0.455,-0.46,-0.47,-0.455,-0.455,-0.465,-0.47,-0.485,-0.485,-0.475,-0.475,-0.475,-0.47,-0.48,-0.475,-0.475,-0.46,-0.465,-0.47,-0.465,-0.465,-0.45,-0.445,-0.43,-0.435,-0.435,-0.425,-0.4,-0.38,-0.365,-0.365,-0.39,-0.365,-0.365,-0.34,-0.345,-0.33,-0.35,-0.335,-0.32,-0.325,-0.32,-0.315,-0.335,-0.33,-0.32,-0.315,-0.31,-0.315,-0.325,-0.33,-0.315,-0.32,-0.32,-0.32,-0.335,-0.345,-0.33,-0.33,-0.325,-0.335,-0.345,-0.335,-0.325,-0.325,-0.335,-0.335,-0.345,-0.345,-0.345,-0.33,-0.325,-0.34,-0.335,-0.335,-0.325,-0.315,-0.315,-0.335,-0.34,-0.34,-0.33,-0.34,-0.325,-0.335,-0.355,-0.35,-0.34,-0.335,-0.34,-0.34,-0.36,-0.365,-0.355,-0.35,-0.345,-0.345,-0.355,-0.375,-0.345,-0.34,-0.355,N
1.05,0.975,0.715,0.27,-0.145,-0.41,-0.52,-0.5,-0.435,-0.39,-0.39,-0.4,-0.41,-0.42,-0.415,-0.405,-0.41,-0.415,-0.42,-0.435,-0.435,-0.425,-0.42,-0.425,-0.43,-0.435,-0.43,-0.425,-0.41,-0.415,-0.42,-0.43,-0.435,-0.43,-0.425,-0.43,-0.44,-0.44,-0.44,-0.43,-0.42,-0.425,-0.425,-0.435,-0.43,-0.435,-0.43,-0.425,-0.43,-0.435,-0.425,-0.42,-0.42,-0.42,-0.42,-0.44,-0.435,-0.43,-0.425,-0.435,-0.44,-0.445,-0.435,-0.435,-0.425,-0.425,-0.435,-0.445,-0.435,-0.445,-0.42,-0.425,-0.43,-0.44,-0.435,-0.42,-0.42,-0.42,-0.415,-0.43,-0.43,-0.43,-0.415,-0.425,-0.435,-0.45,-0.445,-0.44,-0.435,-0.44,-0.435,-0.445,-0.44,-0.44,-0.425,-0.425,-0.425,-0.43,-0.435,-0.41,-0.395,-0.395,-0.39,-0.385,-0.39,-0.38,-0.355,-0.34,-0.35,-0.345,-0.34,-0.32,-0.31,-0.3,-0.305,-0.33,-0.325,-0.32,-0.32,-0.305,-0.325,-0.325,-0.315,-0.32,-0.315,-0.315,-0.32,-0.33,-0.325,-0.32,-0.315,-0.31,-0.315,-0.33,-0.32,-0.33,-0.32,-0.32,-0.34,-0.35,-0.345,-0.335,-0.335,-0.34,-0.335,-0.345,-0.36,-0.345,-0.335,-0.345,-0.355,-0.37,-0.36,-0.355,-0.345,-0.355,-0.355,-0.365,-0.355,-0.355,-0.35,-0.355,-0.36,-0.38,-0.37,-0.365,-0.36,-0.365,-0.38,-0.38,-0.385,-0.37,-0.365,-0.36,-0.365,-0.375,-0.375,-0.37,-0.36,-0.355,-0.365,-0.37,-0.37,-0.36,-0.355,-0.35,-0.355,N
0.85,0.76,0.45,0.02,-0.35,-0.53,-0.525,-0.46,-0.415,-0.395,-0.415,-0.415,-0.41,-0.39,-0.385,-0.4,-0.425,-0.425,-0.415,-0.415,-0.405,-0.425,-0.425,-0.42,-0.42,-0.42,-0.41,-0.42,-0.425,-0.425,-0.41,-0.4,-0.395,-0.4,-0.41,-0.415,-0.405,-0.395,-0.385,-0.405,-0.41,-0.4,-0.405,-0.39,-0.39,-0.39,-0.4,-0.405,-0.395,-0.4,-0.4,-0.4,-0.42,-0.415,-0.4,-0.395,-0.4,-0.41,-0.41,-0.4,-0.4,-0.385,-0.395,-0.405,-0.415,-0.41,-0.405,-0.385,-0.39,-0.395,-0.405,-0.39,-0.385,-0.39,-0.395,-0.41,-0.415,-0.42,-0.405,-0.395,-0.4,-0.415,-0.43,-0.43,-0.42,-0.41,-0.42,-0.435,-0.425,-0.43,-0.425,-0.415,-0.415,-0.425,-0.425,-0.42,-0.405,-0.395,-0.4,-0.405,-0.425,-0.41,-0.395,-0.39,-0.385,-0.38,-0.375,-0.37,-0.355,-0.35,-0.345,-0.35,-0.36,-0.35,-0.33,-0.33,-0.315,-0.34,-0.355,-0.345,-0.33,-0.325,-0.325,-0.325,-0.345,-0.34,-0.325,-0.325,-0.325,-0.34,-0.365,-0.35,-0.35,-0.355,-0.365,-0.38,-0.38,-0.375,-0.36,-0.35,-0.355,-0.375,-0.38,-0.365,-0.375,-0.36,-0.365,-0.37,-0.37,-0.375,-0.365,-0.36,-0.36,-0.375,-0.37,-0.38,-0.38,-0.38,-0.375,-0.405,-0.4,-0.395,-0.385,-0.37,-0.38,-0.385,-0.405,-0.405,-0.395,-0.4,-0.405,-0.41,-0.405,-0.405,-0.4,-0.39,-0.385,-0.395,-0.41,-0.415,-0.4,-0.4,-0.39,-0.395,-0.415,-0.4,-0.4,N
0.82,0.84,0.69,0.335,-0.04,-0.335,-0.52,-0.59,-0.58,-0.53,-0.49,-0.475,-0.47,-0.485,-0.49,-0.48,-0.475,-0.47,-0.475,-0.48,-0.5,-0.505,-0.505,-0.485,-0.475,-0.485,-0.5,-0.5,-0.485,-0.47,-0.485,-0.495,-0.495,-0.495,-0.48,-0.48,-0.46,-0.46,-0.47,-0.475,-0.48,-0.475,-0.49,-0.49,-0.505,-0.5,-0.485,-0.48,-0.485,-0.48,-0.5,-0.495,-0.48,-0.475,-0.475,-0.47,-0.49,-0.475,-0.48,-0.47,-0.485,-0.48,-0.49,-0.485,-0.49,-0.49,-0.495,-0.5,-0.515,-0.515,-0.495,-0.485,-0.465,-0.475,-0.49,-0.495,-0.5,-0.495,-0.5,-0.51,-0.505,-0.51,-0.5,-0.505,-0.51,-0.525,-0.545,-0.54,-0.53,-0.53,-0.535,-0.55,-0.56,-0.545,-0.54,-0.535,-0.53,-0.54,-0.545,-0.55,-0.53,-0.525,-0.515,-0.5,-0.51,-0.49,-0.465,-0.455,-0.44,-0.44,-0.45,-0.425,-0.41,-0.4,-0.405,-0.41,-0.405,-0.4,-0.385,-0.385,-0.38,-0.39,-0.405,-0.4,-0.385,-0.38,-0.38,-0.38,-0.4,-0.395,-0.38,-0.365,-0.36,-0.385,-0.4,-0.4,-0.395,-0.38,-0.385,-0.39,-0.395,-0.395,-0.39,-0.38,-0.385,-0.395,-0.405,-0.4,-0.405,-0.395,-0.405,-0.405,-0.42,-0.41,-0.405,-0.4,-0.405,-0.42,-0.435,-0.425,-0.425,-0.41,-0.42,-0.425,-0.43,-0.43,-0.425,-0.4,-0.415,-0.425,-0.43,-0.435,-0.42,-0.415,-0.42,-0.425,-0.43,-0.435,-0.425,-0.425,-0.43,-0.435,-0.445,-0.445,-0.435,-0.425,-0.425,N
0.85,0.74,0.455,0.08,-0.26,-0.485,-0.57,-0.58,-0.555,-0.505,-0.495,-0.475,-0.485,-0.485,-0.49,-0.485,-0.47,-0.475,-0.49,-0.495,-0.5,-0.505,-0.49,-0.495,-0.5,-0.495,-0.495,-0.495,-0.475,-0.475,-0.49,-0.495,-0.49,-0.48,-0.48,-0.48,-0.49,-0.5,-0.5,-0.48,-0.475,-0.485,-0.48,-0.505,-0.485,-0.48,-0.465,-0.48,-0.49,-0.495,-0.49,-0.485,-0.485,-0.475,-0.49,-0.495,-0.5,-0.49,-0.48,-0.485,-0.495,-0.5,-0.485,-0.485,-0.475,-0.48,-0.485,-0.495,-0.5,-0.49,-0.485,-0.485,-0.495,-0.5,-0.495,-0.485,-0.475,-0.47,-0.485,-0.49,-0.48,-0.5,-0.485,-0.475,-0.49,-0.505,-0.495,-0.5,-0.495,-0.5,-0.52,-0.53,-0.525,-0.515,-0.505,-0.515,-0.515,-0.53,-0.525,-0.51,-0.505,-0.505,-0.505,-0.53,-0.52,-0.515,-0.49,-0.49,-0.495,-0.505,-0.49,-0.46,-0.445,-0.43,-0.43,-0.43,-0.405,-0.41,-0.39,-0.4,-0.395,-0.4,-0.39,-0.385,-0.375,-0.375,-0.38,-0.375,-0.375,-0.365,-0.365,-0.365,-0.365,-0.39,-0.375,-0.37,-0.365,-0.365,-0.37,-0.39,-0.38,-0.365,-0.365,-0.37,-0.39,-0.39,-0.39,-0.38,-0.37,-0.38,-0.385,-0.4,-0.395,-0.39,-0.385,-0.39,-0.395,-0.405,-0.41,-0.395,-0.39,-0.4,-0.405,-0.395,-0.405,-0.39,-0.38,-0.38,-0.385,-0.395,-0.395,-0.395,-0.395,-0.39,-0.4,-0.405,-0.4,-0.4,-0.395,-0.395,-0.4,-0.42,-0.405,-0.415,-0.39,-0.405,-0.405,N
0.885,0.93,0.835,0.565,0.16,-0.2,-0.415,-0.535,-0.56,-0.56,-0.52,-0.485,-0.445,-0.435,-0.44,-0.445,-0.455,-0.455,-0.45,-0.455,-0.47,-0.485,-0.485,-0.48,-0.475,-0.48,-0.48,-0.49,-0.49,-0.49,-0.48,-0.47,-0.48,-0.495,-0.49,-0.48,-0.46,-0.46,-0.455,-0.48,-0.48,-0.46,-0.455,-0.455,-0.46,-0.49,-0.475,-0.475,-0.465,-0.45,-0.465,-0.475,-0.47,-0.465,-0.455,-0.45,-0.455,-0.47,-0.475,-0.455,-0.445,-0.445,-0.45,-0.47,-0.465,-0.455,-0.45,-0.445,-0.46,-0.475,-0.475,-0.465,-0.45,-0.45,-0.475,-0.47,-0.47,-0.47,-0.46,-0.45,-0.47,-0.47,-0.475,-0.465,-0.45,-0.445,-0.465,-0.47,-0.47,-0.455,-0.465,-0.45,-0.46,-0.465,-0.475,-0.46,-0.455,-0.46,-0.47,-0.48,-0.48,-0.475,-0.465,-0.465,-0.475,-0.475,-0.485,-0.47,-0.455,-0.46,-0.465,-0.47,-0.475,-0.45,-0.44,-0.43,-0.43,-0.435,-0.42,-0.395,-0.385,-0.375,-0.37,-0.37,-0.365,-0.355,-0.34,-0.35,-0.36,-0.375,-0.36,-0.35,-0.345,-0.345,-0.36,-0.365,-0.365,-0.355,-0.355,-0.355,-0.36,-0.375,-0.365,-0.365,-0.355,-0.35,-0.36,-0.36,-0.355,-0.355,-0.335,-0.345,-0.35,-0.37,-0.37,-0.37,-0.36,-0.365,-0.38,-0.385,-0.385,-0.365,-0.365,-0.36,-0.365,-0.38,-0.38,-0.37,-0.355,-0.355,-0.365,-0.37,-0.375,-0.365,-0.35,-0.355,-0.38,-0.385,-0.38,-0.365,-0.37,-0.38,-0.375,-0.4,-0.39,-0.39,-0.375,N
0.81,0.825,0.66,0.355,-0.035,-0.35,-0.5,-0.53,-0.505,-0.47,-0.455,-0.45,-0.45,-0.435,-0.43,-0.44,-0.45,-0.455,-0.455,-0.44,-0.435,-0.44,-0.45,-0.45,-0.44,-0.425,-0.425,-0.425,-0.455,-0.455,-0.43,-0.425,-0.44,-0.44,-0.45,-0.445,-0.435,-0.425,-0.42,-0.43,-0.435,-0.43,-0.435,-0.43,-0.43,-0.445,-0.45,-0.45,-0.435,-0.43,-0.425,-0.425,-0.435,-0.435,-0.415,-0.42,-0.43,-0.435,-0.445,-0.445,-0.44,-0.44,-0.44,-0.44,-0.44,-0.45,-0.435,-0.43,-0.425,-0.42,-0.44,-0.445,-0.42,-0.42,-0.42,-0.425,-0.435,-0.425,-0.41,-0.41,-0.42,-0.43,-0.44,-0.435,-0.445,-0.415,-0.43,-0.42,-0.435,-0.435,-0.43,-0.425,-0.425,-0.43,-0.445,-0.44,-0.44,-0.425,-0.44,-0.445,-0.46,-0.46,-0.445,-0.445,-0.435,-0.445,-0.455,-0.46,-0.435,-0.43,-0.435,-0.44,-0.445,-0.44,-0.415,-0.41,-0.39,-0.395,-0.395,-0.395,-0.38,-0.36,-0.365,-0.375,-0.39,-0.385,-0.355,-0.345,-0.345,-0.34,-0.36,-0.36,-0.36,-0.335,-0.34,-0.345,-0.36,-0.36,-0.355,-0.35,-0.35,-0.365,-0.37,-0.38,-0.375,-0.355,-0.36,-0.365,-0.37,-0.365,-0.355,-0.345,-0.35,-0.355,-0.375,-0.38,-0.365,-0.35,-0.355,-0.365,-0.375,-0.37,-0.365,-0.37,-0.37,-0.375,-0.385,-0.39,-0.38,-0.38,-0.375,-0.38,-0.39,-0.395,-0.39,-0.38,-0.375,-0.385,-0.405,-0.39,-0.395,-0.375,-0.39,-0.39,-0.41,-0.405,-0.4,N
0.835,0.755,0.48,0.075,-0.275,-0.47,-0.545,-0.545,-0.505,-0.47,-0.455,-0.44,-0.44,-0.445,-0.445,-0.45,-0.445,-0.45,-0.44,-0.45,-0.46,-0.465,-0.445,-0.445,-0.45,-0.455,-0.465,-0.47,-0.46,-0.45,-0.455,-0.455,-0.465,-0.46,-0.44,-0.435,-0.44,-0.45,-0.455,-0.45,-0.445,-0.445,-0.445,-0.455,-0.455,-0.445,-0.44,-0.44,-0.455,-0.475,-0.465,-0.465,-0.455,-0.44,-0.44,-0.445,-0.445,-0.44,-0.44,-0.435,-0.44,-0.455,-0.465,-0.47,-0.475,-0.45,-0.445,-0.44,-0.45,-0.46,-0.45,-0.435,-0.435,-0.455,-0.46,-0.465,-0.46,-0.45,-0.455,-0.455,-0.465,-0.455,-0.455,-0.445,-0.465,-0.47,-0.48,-0.485,-0.49,-0.485,-0.48,-0.495,-0.515,-0.515,-0.505,-0.485,-0.48,-0.495,-0.505,-0.495,-0.495,-0.475,-0.46,-0.465,-0.465,-0.445,-0.43,-0.41,-0.415,-0.41,-0.41,-0.405,-0.38,-0.365,-0.365,-0.37,-0.37,-0.36,-0.355,-0.345,-0.345,-0.33,-0.345,-0.345,-0.335,-0.34,-0.335,-0.33,-0.345,-0.34,-0.335,-0.32,-0.33,-0.335,-0.35,-0.345,-0.33,-0.32,-0.33,-0.34,-0.345,-0.35,-0.335,-0.325,-0.34,-0.345,-0.36,-0.37,-0.34,-0.33,-0.34,-0.34,-0.355,-0.35,-0.36,-0.34,-0.335,-0.35,-0.36,-0.37,-0.36,-0.355,-0.35,-0.365,-0.375,-0.36,-0.37,-0.36,-0.36,-0.37,-0.38,-0.38,-0.37,-0.35,-0.35,-0.355,-0.36,-0.35,-0.35,-0.34,-0.345,-0.355,-0.365,-0.365,-0.36,-0.35,-0.36,N
0.93,0.86,0.575,0.16,-0.215,-0.455,-0.53,-0.54,-0.535,-0.55,-0.535,-0.51,-0.46,-0.41,-0.41,-0.425,-0.43,-0.43,-0.425,-0.41,-0.41,-0.425,-0.43,-0.425,-0.42,-0.405,-0.41,-0.41,-0.41,-0.42,-0.405,-0.395,-0.395,-0.41,-0.415,-0.42,-0.41,-0.4,-0.41,-0.42,-0.42,-0.425,-0.415,-0.415,-0.405,-0.415,-0.42,-0.43,-0.425,-0.405,-0.41,-0.41,-0.42,-0.415,-0.4,-0.385,-0.395,-0.395,-0.405,-0.405,-0.4,-0.39,-0.395,-0.405,-0.42,-0.42,-0.405,-0.39,-0.4,-0.41,-0.42,-0.425,-0.41,-0.4,-0.395,-0.405,-0.41,-0.42,-0.4,-0.405,-0.405,-0.41,-0.425,-0.415,-0.415,-0.4,-0.405,-0.415,-0.43,-0.42,-0.41,-0.42,-0.425,-0.42,-0.44,-0.43,-0.435,-0.43,-0.43,-0.435,-0.44,-0.43,-0.42,-0.41,-0.41,-0.395,-0.385,-0.38,-0.36,-0.34,-0.33,-0.335,-0.335,-0.33,-0.32,-0.32,-0.32,-0.32,-0.31,-0.315,-0.3,-0.295,-0.295,-0.305,-0.305,-0.305,-0.295,-0.285,-0.3,-0.295,-0.295,-0.3,-0.29,-0.28,-0.295,-0.305,-0.31,-0.32,-0.3,-0.3,-0.31,-0.305,-0.32,-0.325,-0.325,-0.315,-0.305,-0.315,-0.32,-0.33,-0.325,-0.305,-0.325,-0.32,-0.325,-0.335,-0.315,-0.32,-0.32,-0.33,-0.34,-0.345,-0.345,-0.325,-0.325,-0.345,-0.35,-0.35,-0.345,-0.325,-0.33,-0.34,-0.34,-0.335,-0.335,-0.32,-0.325,-0.32,-0.34,-0.335,-0.33,-0.34,-0.335,-0.34,-0.345,-0.355,-0.34,N
0.925,0.86,0.595,0.195,-0.22,-0.445,-0.505,-0.48,-0.435,-0.415,-0.405,-0.39,-0.39,-0.395,-0.4,-0.41,-0.415,-0.4,-0.395,-0.405,-0.405,-0.405,-0.405,-0.395,-0.38,-0.39,-0.405,-0.405,-0.41,-0.405,-0.395,-0.395,-0.405,-0.41,-0.405,-0.405,-0.39,-0.4,-0.405,-0.42,-0.425,-0.405,-0.4,-0.395,-0.395,-0.4,-0.4,-0.4,-0.385,-0.39,-0.395,-0.395,-0.4,-0.385,-0.385,-0.395,-0.395,-0.4,-0.4,-0.395,-0.39,-0.395,-0.4,-0.41,-0.41,-0.405,-0.39,-0.385,-0.395,-0.405,-0.41,-0.4,-0.38,-0.385,-0.39,-0.395,-0.395,-0.385,-0.385,-0.39,-0.4,-0.395,-0.4,-0.39,-0.385,-0.395,-0.405,-0.405,-0.42,-0.41,-0.395,-0.405,-0.41,-0.425,-0.42,-0.425,-0.4,-0.405,-0.405,-0.395,-0.405,-0.395,-0.385,-0.395,-0.4,-0.395,-0.395,-0.38,-0.365,-0.375,-0.37,-0.37,-0.375,-0.355,-0.33,-0.335,-0.345,-0.35,-0.335,-0.32,-0.305,-0.31,-0.315,-0.32,-0.32,-0.31,-0.305,-0.31,-0.295,-0.305,-0.3,-0.29,-0.285,-0.29,-0.295,-0.3,-0.305,-0.31,-0.31,-0.305,-0.3,-0.315,-0.33,-0.32,-0.305,-0.31,-0.32,-0.315,-0.34,-0.32,-0.315,-0.325,-0.33,-0.33,-0.335,-0.315,-0.315,-0.31,-0.32,-0.32,-0.32,-0.33,-0.32,-0.32,-0.33,-0.34,-0.33,-0.335,-0.335,-0.33,-0.34,-0.345,-0.35,-0.345,-0.33,-0.335,-0.345,-0.35,-0.35,-0.35,-0.335,-0.34,-0.34,-0.36,-0.355,-0.36,-0.345,N
0.77,0.655,0.38,0.0,-0.31,-0.485,-0.52,-0.475,-0.42,-0.41,-0.425,-0.425,-0.43,-0.43,-0.41,-0.42,-0.44,-0.435,-0.445,-0.44,-0.425,-0.415,-0.425,-0.44,-0.455,-0.45,-0.43,-0.425,-0.43,-0.445,-0.44,-0.43,-0.415,-0.415,-0.43,-0.44,-0.445,-0.435,-0.415,-0.42,-0.44,-0.435,-0.445,-0.425,-0.42,-0.43,-0.43,-0.44,-0.435,-0.435,-0.425,-0.43,-0.44,-0.44,-0.445,-0.44,-0.425,-0.43,-0.43,-0.435,-0.435,-0.435,-0.43,-0.435,-0.435,-0.43,-0.425,-0.42,-0.405,-0.42,-0.43,-0.435,-0.445,-0.425,-0.41,-0.42,-0.435,-0.44,-0.445,-0.435,-0.43,-0.43,-0.44,-0.46,-0.475,-0.45,-0.44,-0.44,-0.44,-0.475,-0.46,-0.45,-0.44,-0.44,-0.45,-0.46,-0.47,-0.465,-0.45,-0.45,-0.465,-0.455,-0.46,-0.45,-0.435,-0.435,-0.43,-0.435,-0.43,-0.405,-0.405,-0.385,-0.385,-0.385,-0.39,-0.38,-0.37,-0.375,-0.37,-0.36,-0.365,-0.36,-0.345,-0.36,-0.35,-0.35,-0.355,-0.35,-0.35,-0.34,-0.355,-0.375,-0.38,-0.365,-0.35,-0.36,-0.37,-0.37,-0.38,-0.385,-0.37,-0.375,-0.39,-0.4,-0.395,-0.385,-0.36,-0.365,-0.375,-0.375,-0.385,-0.38,-0.385,-0.385,-0.39,-0.395,-0.4,-0.39,-0.38,-0.375,-0.385,-0.395,-0.415,-0.405,-0.39,-0.39,-0.405,-0.41,-0.415,-0.405,-0.4,-0.41,-0.39,-0.4,-0.405,-0.395,-0.395,-0.4,-0.405,-0.41,-0.41,-0.395,-0.395,-0.395,-0.4,-0.415,-0.415,N
0.85,0.875,0.69,0.32,-0.11,-0.405,-0.53,-0.515,-0.455,-0.43,-0.42,-0.42,-0.44,-0.43,-0.43,-0.425,-0.43,-0.445,-0.45,-0.44,-0.42,-0.425,-0.435,-0.43,-0.445,-0.43,-0.415,-0.425,-0.42,-0.44,-0.445,-0.43,-0.42,-0.42,-0.425,-0.43,-0.445,-0.42,-0.405,-0.42,-0.43,-0.44,-0.445,-0.43,-0.415,-0.43,-0.44,-0.44,-0.44,-0.43,-0.43,-0.42,-0.43,-0.44,-0.45,-0.44,-0.42,-0.425,-0.42,-0.43,-0.44,-0.425,-0.42,-0.4,-0.41,-0.42,-0.43,-0.42,-0.405,-0.41,-0.43,-0.44,-0.435,-0.42,-0.415,-0.43,-0.43,-0.435,-0.435,-0.435,-0.425,-0.435,-0.435,-0.44,-0.44,-0.435,-0.425,-0.425,-0.445,-0.44,-0.455,-0.445,-0.44,-0.44,-0.45,-0.435,-0.445,-0.435,-0.43,-0.43,-0.43,-0.44,-0.44,-0.43,-0.42,-0.415,-0.415,-0.41,-0.405,-0.385,-0.37,-0.365,-0.365,-0.365,-0.35,-0.345,-0.325,-0.325,-0.325,-0.34,-0.335,-0.315,-0.3,-0.3,-0.315,-0.3,-0.305,-0.305,-0.295,-0.31,-0.31,-0.315,-0.325,-0.315,-0.3,-0.31,-0.305,-0.32,-0.32,-0.31,-0.31,-0.31,-0.31,-0.32,-0.325,-0.32,-0.3,-0.29,-0.31,-0.32,-0.325,-0.3,-0.3,-0.3,-0.305,-0.325,-0.335,-0.325,-0.31,-0.325,-0.33,-0.33,-0.34,-0.33,-0.315,-0.32,-0.33,-0.34,-0.34,-0.335,-0.325,-0.32,-0.335,-0.335,-0.34,-0.34,-0.325,-0.335,-0.34,-0.35,-0.36,-0.355,-0.335,-0.335,-0.355,-0.355,-0.36,N
0.85,0.815,0.6,0.28,-0.1,-0.37,-0.495,-0.5,-0.455,-0.405,-0.39,-0.4,-0.41,-0.41,-0.39,-0.375,-0.385,-0.395,-0.415,-0.41,-0.4,-0.395,-0.385,-0.39,-0.405,-0.41,-0.39,-0.395,-0.39,-0.4,-0.425,-0.41,-0.395,-0.39,-0.4,-0.4,-0.405,-0.41,-0.395,-0.395,-0.39,-0.405,-0.4,-0.395,-0.395,-0.385,-0.39,-0.395,-0.405,-0.4,-0.385,-0.375,-0.385,-0.39,-0.405,-0.4,-0.39,-0.4,-0.405,-0.41,-0.4,-0.415,-0.405,-0.39,-0.385,-0.4,-0.41,-0.41,-0.39,-0.38,-0.37,-0.385,-0.395,-0.39,-0.375,-0.385,-0.39,-0.39,-0.395,-0.41,-0.395,-0.38,-0.4,-0.4,-0.4,-0.41,-0.41,-0.4,-0.41,-0.4,-0.415,-0.425,-0.415,-0.4,-0.405,-0.405,-0.415,-0.42,-0.405,-0.395,-0.39,-0.4,-0.415,-0.4,-0.39,-0.38,-0.375,-0.385,-0.38,-0.385,-0.365,-0.36,-0.345,-0.345,-0.345,-0.34,-0.33,-0.31,-0.31,-0.315,-0.325,-0.32,-0.305,-0.295,-0.295,-0.295,-0.3,-0.31,-0.295,-0.285,-0.285,-0.295,-0.31,-0.305,-0.305,-0.295,-0.29,-0.29,-0.305,-0.305,-0.295,-0.29,-0.305,-0.31,-0.32,-0.325,-0.32,-0.3,-0.315,-0.315,-0.325,-0.325,-0.32,-0.31,-0.315,-0.33,-0.34,-0.335,-0.325,-0.315,-0.32,-0.325,-0.33,-0.34,-0.325,-0.31,-0.315,-0.325,-0.33,-0.335,-0.345,-0.335,-0.335,-0.34,-0.345,-0.345,-0.345,-0.335,-0.335,-0.34,-0.355,-0.345,-0.35,-0.335,-0.33,-0.335,-0.34,N
0.79,0.76,0.56,0.245,-0.11,-0.36,-0.475,-0.51,-0.49,-0.465,-0.44,-0.435,-0.415,-0.425,-0.415,-0.425,-0.435,-0.395,-0.385,-0.385,-0.4,-0.41,-0.42,-0.41,-0.405,-0.41,-0.4,-0.42,-0.435,-0.42,-0.405,-0.405,-0.415,-0.415,-0.42,-0.42,-0.4,-0.41,-0.415,-0.425,-0.43,-0.415,-0.415,-0.41,-0.415,-0.42,-0.42,-0.415,-0.395,-0.4,-0.405,-0.415,-0.415,-0.42,-0.415,-0.425,-0.425,-0.435,-0.435,-0.425,-0.415,-0.415,-0.42,-0.425,-0.43,-0.42,-0.41,-0.41,-0.41,-0.415,-0.425,-0.405,-0.4,-0.4,-0.41,-0.415,-0.415,-0.405,-0.395,-0.385,-0.395,-0.395,-0.415,-0.395,-0.39,-0.395,-0.405,-0.415,-0.425,-0.415,-0.415,-0.415,-0.425,-0.435,-0.445,-0.445,-0.445,-0.445,-0.44,-0.45,-0.435,-0.43,-0.425,-0.435,-0.445,-0.445,-0.43,-0.425,-0.42,-0.425,-0.415,-0.415,-0.41,-0.405,-0.375,-0.37,-0.365,-0.365,-0.36,-0.345,-0.34,-0.33,-0.335,-0.335,-0.33,-0.33,-0.315,-0.315,-0.315,-0.315,-0.325,-0.32,-0.32,-0.3,-0.32,-0.33,-0.335,-0.32,-0.305,-0.315,-0.325,-0.335,-0.34,-0.34,-0.32,-0.335,-0.335,-0.345,-0.35,-0.33,-0.33,-0.33,-0.335,-0.335,-0.345,-0.345,-0.325,-0.345,-0.33,-0.34,-0.345,-0.34,-0.35,-0.34,-0.34,-0.35,-0.37,-0.355,-0.34,-0.345,-0.35,-0.365,-0.37,-0.37,-0.355,-0.36,-0.355,-0.36,-0.375,-0.37,-0.355,-0.345,-0.355,-0.365,-0.36,-0.36,-0.36,N
1.02,0.905,0.655,0.37,0.105,-0.08,-0.22,-0.34,-0.435,-0.51,-0.57,-0.58,-0.52,-0.46,-0.415,-0.415,-0.425,-0.415,-0.405,-0.415,-0.42,-0.435,-0.435,-0.43,-0.42,-0.425,-0.425,-0.435,-0.435,-0.415,-0.405,-0.41,-0.415,-0.41,-0.41,-0.415,-0.4,-0.405,-0.42,-0.43,-0.435,-0.42,-0.405,-0.425,-0.43,-0.43,-0.425,-0.415,-0.41,-0.405,-0.42,-0.425,-0.43,-0.415,-0.405,-0.405,-0.41,-0.42,-0.425,-0.41,-0.4,-0.415,-0.4,-0.41,-0.41,-0.4,-0.39,-0.39,-0.405,-0.41,-0.425,-0.415,-0.405,-0.4,-0.41,-0.425,-0.42,-0.415,-0.405,-0.41,-0.4,-0.42,-0.415,-0.425,-0.405,-0.42,-0.425,-0.43,-0.44,-0.415,-0.42,-0.425,-0.42,-0.44,-0.425,-0.425,-0.425,-0.425,-0.43,-0.435,-0.445,-0.425,-0.415,-0.415,-0.415,-0.41,-0.4,-0.395,-0.37,-0.36,-0.36,-0.345,-0.345,-0.345,-0.33,-0.315,-0.325,-0.33,-0.335,-0.32,-0.305,-0.305,-0.31,-0.325,-0.33,-0.315,-0.32,-0.31,-0.32,-0.315,-0.325,-0.32,-0.31,-0.31,-0.315,-0.315,-0.325,-0.31,-0.305,-0.31,-0.32,-0.325,-0.325,-0.32,-0.315,-0.325,-0.325,-0.34,-0.34,-0.335,-0.335,-0.33,-0.34,-0.35,-0.345,-0.34,-0.335,-0.33,-0.335,-0.345,-0.345,-0.345,-0.335,-0.34,-0.345,-0.355,-0.35,-0.35,-0.34,-0.345,-0.36,-0.365,-0.37,-0.355,-0.355,-0.36,-0.365,-0.37,-0.375,-0.355,-0.35,-0.36,-0.365,-0.365,-0.365,-0.35,-0.345,N
0.935,0.99,0.91,0.69,0.38,0.0,-0.305,-0.475,-0.515,-0.505,-0.47,-0.445,-0.415,-0.415,-0.42,-0.42,-0.425,-0.435,-0.415,-0.41,-0.41,-0.415,-0.415,-0.42,-0.41,-0.41,-0.4,-0.41,-0.425,-0.435,-0.42,-0.415,-0.405,-0.41,-0.43,-0.425,-0.425,-0.4,-0.415,-0.41,-0.415,-0.425,-0.415,-0.405,-0.405,-0.41,-0.41,-0.41,-0.41,-0.39,-0.385,-0.39,-0.405,-0.41,-0.395,-0.39,-0.395,-0.405,-0.4,-0.405,-0.41,-0.395,-0.39,-0.395,-0.4,-0.405,-0.4,-0.39,-0.39,-0.405,-0.405,-0.415,-0.4,-0.39,-0.395,-0.4,-0.415,-0.41,-0.39,-0.385,-0.4,-0.4,-0.42,-0.405,-0.4,-0.4,-0.395,-0.4,-0.42,-0.435,-0.415,-0.395,-0.4,-0.42,-0.425,-0.42,-0.415,-0.4,-0.405,-0.415,-0.42,-0.42,-0.405,-0.405,-0.395,-0.395,-0.395,-0.395,-0.385,-0.375,-0.37,-0.355,-0.37,-0.36,-0.345,-0.335,-0.32,-0.335,-0.335,-0.34,-0.325,-0.32,-0.315,-0.325,-0.335,-0.335,-0.315,-0.325,-0.32,-0.33,-0.33,-0.335,-0.33,-0.32,-0.33,-0.32,-0.325,-0.325,-0.33,-0.32,-0.32,-0.325,-0.335,-0.34,-0.33,-0.32,-0.33,-0.355,-0.36,-0.36,-0.355,-0.35,-0.355,-0.35,-0.365,-0.36,-0.37,-0.355,-0.365,-0.365,-0.365,-0.385,-0.375,-0.37,-0.36,-0.365,-0.375,-0.39,-0.385,-0.38,-0.375,-0.385,-0.395,-0.39,-0.395,-0.375,-0.39,-0.385,-0.4,-0.39,-0.38,-0.365,-0.365,-0.375,-0.375,-0.385,-0.385,N
0.765,0.735,0.54,0.195,-0.135,-0.385,-0.525,-0.565,-0.53,-0.49,-0.465,-0.455,-0.46,-0.47,-0.465,-0.46,-0.445,-0.435,-0.44,-0.44,-0.45,-0.455,-0.445,-0.455,-0.46,-0.455,-0.46,-0.445,-0.435,-0.44,-0.45,-0.455,-0.45,-0.46,-0.445,-0.45,-0.45,-0.455,-0.47,-0.46,-0.455,-0.445,-0.46,-0.455,-0.455,-0.455,-0.46,-0.465,-0.465,-0.475,-0.465,-0.45,-0.445,-0.445,-0.455,-0.46,-0.455,-0.455,-0.44,-0.44,-0.45,-0.455,-0.46,-0.445,-0.435,-0.445,-0.455,-0.465,-0.485,-0.475,-0.455,-0.445,-0.445,-0.45,-0.455,-0.45,-0.435,-0.445,-0.45,-0.45,-0.46,-0.45,-0.44,-0.445,-0.46,-0.475,-0.475,-0.465,-0.46,-0.47,-0.48,-0.5,-0.5,-0.485,-0.485,-0.485,-0.49,-0.495,-0.505,-0.49,-0.5,-0.505,-0.505,-0.51,-0.515,-0.505,-0.5,-0.495,-0.505,-0.5,-0.5,-0.48,-0.455,-0.425,-0.425,-0.415,-0.405,-0.395,-0.38,-0.385,-0.38,-0.385,-0.395,-0.385,-0.37,-0.355,-0.355,-0.37,-0.37,-0.355,-0.345,-0.34,-0.345,-0.34,-0.345,-0.34,-0.335,-0.35,-0.35,-0.35,-0.355,-0.34,-0.335,-0.345,-0.335,-0.335,-0.335,-0.325,-0.315,-0.32,-0.34,-0.35,-0.35,-0.35,-0.335,-0.35,-0.365,-0.365,-0.37,-0.37,-0.355,-0.355,-0.36,-0.37,-0.37,-0.37,-0.355,-0.355,-0.355,-0.38,-0.37,-0.365,-0.35,-0.35,-0.365,-0.36,-0.375,-0.365,-0.36,-0.36,-0.38,-0.39,-0.385,-0.38,-0.375,-0.375,-0.385,N
0.86,0.815,0.575,0.205,-0.18,-0.44,-0.525,-0.52,-0.475,-0.44,-0.43,-0.44,-0.43,-0.415,-0.405,-0.42,-0.425,-0.435,-0.425,-0.415,-0.415,-0.42,-0.42,-0.425,-0.415,-0.4,-0.41,-0.4,-0.42,-0.415,-0.415,-0.4,-0.41,-0.41,-0.425,-0.435,-0.42,-0.41,-0.405,-0.42,-0.435,-0.425,-0.415,-0.42,-0.415,-0.41,-0.43,-0.43,-0.42,-0.405,-0.4,-0.41,-0.415,-0.415,-0.405,-0.4,-0.4,-0.41,-0.405,-0.415,-0.4,-0.4,-0.415,-0.42,-0.405,-0.42,-0.415,-0.41,-0.41,-0.42,-0.425,-0.415,-0.415,-0.41,-0.405,-0.41,-0.43,-0.425,-0.41,-0.405,-0.405,-0.41,-0.42,-0.425,-0.425,-0.415,-0.425,-0.43,-0.435,-0.445,-0.44,-0.45,-0.45,-0.46,-0.465,-0.465,-0.46,-0.455,-0.455,-0.45,-0.46,-0.46,-0.445,-0.43,-0.43,-0.445,-0.435,-0.425,-0.4,-0.385,-0.375,-0.375,-0.38,-0.37,-0.35,-0.33,-0.325,-0.325,-0.32,-0.315,-0.315,-0.295,-0.3,-0.295,-0.31,-0.3,-0.29,-0.28,-0.285,-0.285,-0.29,-0.3,-0.285,-0.28,-0.285,-0.28,-0.295,-0.305,-0.29,-0.275,-0.29,-0.295,-0.3,-0.315,-0.305,-0.29,-0.3,-0.305,-0.31,-0.31,-0.31,-0.3,-0.295,-0.305,-0.32,-0.315,-0.31,-0.3,-0.29,-0.3,-0.32,-0.32,-0.3,-0.295,-0.295,-0.31,-0.32,-0.315,-0.305,-0.31,-0.32,-0.325,-0.31,-0.325,-0.31,-0.31,-0.31,-0.325,-0.33,-0.33,-0.32,-0.3,-0.31,-0.3,-0.315,-0.325,-0.31,N
0.81,0.715,0.42,0.035,-0.3,-0.465,-0.52,-0.49,-0.45,-0.425,-0.445,-0.435,-0.435,-0.44,-0.43,-0.425,-0.43,-0.41,-0.415,-0.415,-0.42,-0.445,-0.455,-0.435,-0.425,-0.42,-0.43,-0.435,-0.435,-0.435,-0.425,-0.43,-0.43,-0.445,-0.45,-0.445,-0.43,-0.435,-0.43,-0.435,-0.43,-0.425,-0.42,-0.415,-0.415,-0.44,-0.445,-0.435,-0.425,-0.43,-0.44,-0.465,-0.46,-0.45,-0.445,-0.45,-0.455,-0.445,-0.45,-0.44,-0.43,-0.415,-0.425,-0.425,-0.445,-0.43,-0.43,-0.445,-0.445,-0.455,-0.445,-0.45,-0.44,-0.435,-0.44,-0.45,-0.46,-0.45,-0.44,-0.44,-0.45,-0.455,-0.47,-0.47,-0.475,-0.485,-0.475,-0.475,-0.485,-0.48,-0.475,-0.485,-0.49,-0.505,-0.51,-0.515,-0.505,-0.48,-0.495,-0.485,-0.485,-0.46,-0.44,-0.435,-0.42,-0.415,-0.42,-0.4,-0.38,-0.36,-0.36,-0.37,-0.37,-0.355,-0.34,-0.33,-0.325,-0.335,-0.35,-0.345,-0.335,-0.335,-0.335,-0.355,-0.35,-0.35,-0.34,-0.335,-0.34,-0.35,-0.355,-0.345,-0.33,-0.335,-0.34,-0.35,-0.35,-0.345,-0.34,-0.35,-0.355,-0.36,-0.375,-0.37,-0.36,-0.355,-0.37,-0.37,-0.38,-0.38,-0.365,-0.375,-0.38,-0.39,-0.39,-0.39,-0.37,-0.37,-0.375,-0.395,-0.38,-0.375,-0.355,-0.36,-0.37,-0.38,-0.385,-0.38,-0.375,-0.38,-0.38,-0.395,-0.39,-0.385,-0.375,-0.38,-0.38,-0.385,-0.395,-0.39,-0.395,-0.37,-0.38,-0.375,-0.38,-0.37,-0.36,N
0.805,0.72,0.47,0.12,-0.21,-0.425,-0.485,-0.475,-0.435,-0.41,-0.405,-0.435,-0.425,-0.43,-0.42,-0.415,-0.425,-0.435,-0.445,-0.445,-0.445,-0.44,-0.425,-0.43,-0.44,-0.435,-0.435,-0.44,-0.44,-0.44,-0.45,-0.46,-0.44,-0.425,-0.425,-0.425,-0.43,-0.44,-0.435,-0.425,-0.42,-0.44,-0.435,-0.44,-0.445,-0.435,-0.435,-0.44,-0.45,-0.455,-0.44,-0.435,-0.43,-0.435,-0.435,-0.44,-0.44,-0.44,-0.445,-0.435,-0.435,-0.445,-0.44,-0.43,-0.425,-0.43,-0.44,-0.445,-0.435,-0.43,-0.42,-0.43,-0.435,-0.455,-0.44,-0.44,-0.44,-0.44,-0.445,-0.445,-0.435,-0.435,-0.425,-0.425,-0.44,-0.44,-0.45,-0.435,-0.44,-0.455,-0.455,-0.465,-0.45,-0.45,-0.445,-0.455,-0.455,-0.455,-0.455,-0.435,-0.435,-0.435,-0.43,-0.425,-0.41,-0.385,-0.375,-0.38,-0.38,-0.38,-0.355,-0.355,-0.355,-0.355,-0.365,-0.34,-0.33,-0.33,-0.335,-0.35,-0.345,-0.34,-0.34,-0.33,-0.33,-0.335,-0.345,-0.35,-0.345,-0.34,-0.34,-0.335,-0.355,-0.355,-0.345,-0.34,-0.35,-0.355,-0.355,-0.355,-0.36,-0.355,-0.36,-0.365,-0.37,-0.375,-0.365,-0.365,-0.365,-0.37,-0.385,-0.39,-0.39,-0.37,-0.37,-0.375,-0.385,-0.395,-0.395,-0.365,-0.37,-0.39,-0.39,-0.395,-0.385,-0.39,-0.39,-0.38,-0.39,-0.405,-0.39,-0.395,-0.4,-0.4,-0.415,-0.41,-0.405,-0.39,-0.385,-0.395,-0.41,-0.405,-0.38,-0.375,-0.385,-0.375,-0.38,N
0.705,0.77,0.725,0.49,0.14,-0.23,-0.48,-0.565,-0.54,-0.48,-0.45,-0.44,-0.45,-0.45,-0.45,-0.445,-0.43,-0.43,-0.45,-0.46,-0.465,-0.46,-0.455,-0.45,-0.45,-0.455,-0.46,-0.45,-0.445,-0.45,-0.455,-0.465,-0.47,-0.455,-0.445,-0.455,-0.455,-0.455,-0.455,-0.435,-0.435,-0.425,-0.445,-0.44,-0.45,-0.45,-0.455,-0.45,-0.455,-0.465,-0.46,-0.46,-0.445,-0.445,-0.46,-0.47,-0.465,-0.455,-0.435,-0.44,-0.45,-0.455,-0.465,-0.465,-0.465,-0.45,-0.445,-0.445,-0.445,-0.445,-0.43,-0.43,-0.435,-0.46,-0.45,-0.44,-0.425,-0.44,-0.455,-0.46,-0.475,-0.47,-0.455,-0.455,-0.47,-0.485,-0.485,-0.47,-0.47,-0.47,-0.48,-0.49,-0.49,-0.475,-0.46,-0.465,-0.475,-0.485,-0.485,-0.475,-0.48,-0.47,-0.475,-0.48,-0.48,-0.445,-0.44,-0.415,-0.415,-0.41,-0.41,-0.39,-0.38,-0.38,-0.385,-0.39,-0.38,-0.365,-0.36,-0.355,-0.365,-0.365,-0.365,-0.35,-0.35,-0.345,-0.355,-0.375,-0.385,-0.375,-0.355,-0.355,-0.35,-0.355,-0.37,-0.355,-0.355,-0.355,-0.375,-0.38,-0.38,-0.37,-0.36,-0.36,-0.37,-0.395,-0.395,-0.38,-0.365,-0.355,-0.375,-0.38,-0.375,-0.37,-0.37,-0.37,-0.395,-0.405,-0.405,-0.395,-0.4,-0.4,-0.41,-0.405,-0.41,-0.41,-0.4,-0.4,-0.41,-0.42,-0.415,-0.41,-0.395,-0.39,-0.395,-0.405,-0.405,-0.39,-0.39,-0.395,-0.405,-0.405,-0.415,-0.415,-0.42,-0.405,-0.405,N
0.775,0.83,0.685,0.36,-0.03,-0.345,-0.495,-0.535,-0.53,-0.49,-0.475,-0.48,-0.465,-0.47,-0.465,-0.455,-0.465,-0.48,-0.48,-0.45,-0.455,-0.46,-0.47,-0.475,-0.46,-0.45,-0.445,-0.465,-0.47,-0.465,-0.445,-0.445,-0.445,-0.45,-0.455,-0.465,-0.45,-0.45,-0.445,-0.455,-0.465,-0.465,-0.465,-0.445,-0.445,-0.45,-0.465,-0.47,-0.465,-0.455,-0.455,-0.46,-0.455,-0.46,-0.46,-0.445,-0.445,-0.445,-0.45,-0.46,-0.44,-0.435,-0.43,-0.44,-0.45,-0.45,-0.44,-0.435,-0.43,-0.44,-0.455,-0.46,-0.435,-0.44,-0.435,-0.44,-0.445,-0.455,-0.46,-0.44,-0.445,-0.455,-0.46,-0.46,-0.45,-0.455,-0.45,-0.46,-0.465,-0.475,-0.465,-0.47,-0.465,-0.475,-0.5,-0.515,-0.495,-0.49,-0.495,-0.505,-0.505,-0.51,-0.495,-0.49,-0.485,-0.485,-0.495,-0.49,-0.48,-0.46,-0.45,-0.45,-0.445,-0.435,-0.42,-0.415,-0.4,-0.4,-0.39,-0.38,-0.37,-0.36,-0.345,-0.35,-0.345,-0.345,-0.34,-0.325,-0.32,-0.335,-0.33,-0.33,-0.325,-0.31,-0.305,-0.31,-0.33,-0.32,-0.315,-0.305,-0.315,-0.31,-0.335,-0.335,-0.325,-0.325,-0.325,-0.335,-0.355,-0.345,-0.325,-0.325,-0.33,-0.33,-0.34,-0.35,-0.33,-0.325,-0.335,-0.335,-0.33,-0.345,-0.34,-0.33,-0.325,-0.34,-0.34,-0.345,-0.33,-0.32,-0.33,-0.32,-0.33,-0.335,-0.355,-0.335,-0.335,-0.34,-0.35,-0.355,-0.35,-0.345,-0.335,-0.35,-0.35,-0.355,-0.36,N
0.96,0.97,0.79,0.44,0.025,-0.285,-0.425,-0.46,-0.435,-0.395,-0.365,-0.355,-0.37,-0.37,-0.37,-0.375,-0.38,-0.375,-0.365,-0.375,-0.39,-0.385,-0.38,-0.38,-0.36,-0.37,-0.38,-0.39,-0.37,-0.36,-0.36,-0.375,-0.385,-0.39,-0.385,-0.375,-0.365,-0.38,-0.39,-0.38,-0.375,-0.365,-0.365,-0.375,-0.38,-0.385,-0.37,-0.365,-0.355,-0.36,-0.375,-0.39,-0.375,-0.36,-0.355,-0.375,-0.38,-0.37,-0.36,-0.36,-0.36,-0.365,-0.375,-0.37,-0.365,-0.36,-0.365,-0.365,-0.375,-0.37,-0.375,-0.365,-0.365,-0.365,-0.37,-0.39,-0.375,-0.365,-0.37,-0.37,-0.375,-0.37,-0.365,-0.365,-0.36,-0.36,-0.38,-0.375,-0.355,-0.35,-0.35,-0.365,-0.375,-0.375,-0.37,-0.365,-0.37,-0.385,-0.39,-0.4,-0.39,-0.38,-0.375,-0.38,-0.38,-0.39,-0.375,-0.36,-0.365,-0.37,-0.35,-0.355,-0.335,-0.32,-0.31,-0.315,-0.305,-0.3,-0.29,-0.285,-0.265,-0.265,-0.285,-0.27,-0.255,-0.24,-0.23,-0.245,-0.245,-0.255,-0.245,-0.23,-0.24,-0.245,-0.24,-0.26,-0.24,-0.24,-0.245,-0.25,-0.245,-0.255,-0.245,-0.245,-0.235,-0.25,-0.255,-0.265,-0.255,-0.245,-0.245,-0.25,-0.26,-0.26,-0.25,-0.25,-0.245,-0.27,-0.265,-0.275,-0.275,-0.265,-0.27,-0.28,-0.275,-0.28,-0.285,-0.265,-0.27,-0.275,-0.285,-0.285,-0.275,-0.275,-0.27,-0.275,-0.29,-0.295,-0.28,-0.27,-0.275,-0.285,-0.3,-0.305,-0.29,-0.29,-0.29,N
0.955,0.995,0.88,0.585,0.135,-0.21,-0.4,-0.425,-0.405,-0.36,-0.335,-0.335,-0.34,-0.335,-0.34,-0.35,-0.355,-0.35,-0.35,-0.35,-0.355,-0.37,-0.37,-0.355,-0.35,-0.355,-0.34,-0.35,-0.365,-0.355,-0.345,-0.345,-0.345,-0.35,-0.35,-0.34,-0.33,-0.325,-0.33,-0.345,-0.35,-0.335,-0.325,-0.33,-0.325,-0.34,-0.34,-0.335,-0.33,-0.33,-0.33,-0.345,-0.34,-0.335,-0.345,-0.335,-0.335,-0.35,-0.345,-0.335,-0.335,-0.335,-0.34,-0.345,-0.345,-0.345,-0.335,-0.34,-0.335,-0.355,-0.355,-0.345,-0.335,-0.335,-0.34,-0.35,-0.35,-0.345,-0.33,-0.335,-0.35,-0.35,-0.36,-0.35,-0.33,-0.34,-0.34,-0.345,-0.35,-0.335,-0.345,-0.335,-0.345,-0.355,-0.355,-0.335,-0.34,-0.34,-0.355,-0.36,-0.36,-0.35,-0.34,-0.33,-0.34,-0.34,-0.335,-0.305,-0.3,-0.295,-0.3,-0.29,-0.29,-0.27,-0.255,-0.265,-0.265,-0.26,-0.255,-0.245,-0.24,-0.24,-0.25,-0.25,-0.25,-0.235,-0.235,-0.23,-0.25,-0.25,-0.25,-0.245,-0.23,-0.235,-0.245,-0.255,-0.255,-0.25,-0.245,-0.245,-0.25,-0.255,-0.26,-0.26,-0.25,-0.25,-0.25,-0.265,-0.27,-0.275,-0.265,-0.26,-0.26,-0.27,-0.28,-0.27,-0.26,-0.255,-0.27,-0.27,-0.28,-0.27,-0.265,-0.27,-0.26,-0.275,-0.275,-0.265,-0.27,-0.27,-0.27,-0.275,-0.275,-0.27,-0.26,-0.27,-0.28,-0.285,-0.29,-0.29,-0.285,-0.27,-0.285,-0.305,-0.305,-0.29,-0.29,N
0.83,0.815,0.62,0.27,-0.1,-0.355,-0.455,-0.455,-0.4,-0.355,-0.35,-0.345,-0.355,-0.365,-0.37,-0.355,-0.34,-0.345,-0.35,-0.355,-0.365,-0.36,-0.365,-0.36,-0.365,-0.365,-0.37,-0.37,-0.355,-0.355,-0.355,-0.36,-0.365,-0.34,-0.34,-0.345,-0.35,-0.365,-0.365,-0.35,-0.34,-0.35,-0.35,-0.37,-0.36,-0.355,-0.35,-0.345,-0.355,-0.37,-0.37,-0.36,-0.355,-0.355,-0.345,-0.36,-0.36,-0.355,-0.345,-0.34,-0.34,-0.36,-0.355,-0.355,-0.35,-0.35,-0.35,-0.36,-0.35,-0.34,-0.335,-0.34,-0.355,-0.365,-0.36,-0.365,-0.355,-0.355,-0.35,-0.36,-0.375,-0.365,-0.355,-0.37,-0.375,-0.375,-0.38,-0.375,-0.38,-0.365,-0.37,-0.39,-0.405,-0.4,-0.395,-0.38,-0.39,-0.39,-0.4,-0.39,-0.38,-0.385,-0.405,-0.385,-0.385,-0.355,-0.345,-0.335,-0.33,-0.335,-0.32,-0.3,-0.285,-0.28,-0.285,-0.285,-0.295,-0.285,-0.27,-0.27,-0.27,-0.275,-0.285,-0.275,-0.265,-0.255,-0.255,-0.275,-0.28,-0.27,-0.265,-0.275,-0.28,-0.27,-0.27,-0.255,-0.25,-0.245,-0.265,-0.275,-0.29,-0.285,-0.27,-0.265,-0.25,-0.27,-0.28,-0.28,-0.28,-0.28,-0.285,-0.305,-0.295,-0.29,-0.295,-0.28,-0.29,-0.295,-0.305,-0.295,-0.29,-0.285,-0.275,-0.29,-0.305,-0.3,-0.295,-0.29,-0.295,-0.3,-0.31,-0.295,-0.3,-0.285,-0.295,-0.31,-0.315,-0.31,-0.31,-0.31,-0.32,-0.305,-0.295,-0.28,-0.28,-0.28,-0.295,N
0.885,0.925,0.76,0.415,0.035,-0.25,-0.41,-0.46,-0.44,-0.385,-0.35,-0.35,-0.34,-0.355,-0.36,-0.35,-0.345,-0.35,-0.35,-0.37,-0.365,-0.35,-0.34,-0.34,-0.345,-0.355,-0.37,-0.355,-0.345,-0.34,-0.345,-0.355,-0.36,-0.345,-0.35,-0.345,-0.34,-0.36,-0.365,-0.355,-0.355,-0.35,-0.345,-0.36,-0.365,-0.355,-0.35,-0.345,-0.35,-0.355,-0.35,-0.36,-0.345,-0.345,-0.345,-0.355,-0.365,-0.345,-0.34,-0.35,-0.33,-0.36,-0.36,-0.35,-0.34,-0.335,-0.34,-0.35,-0.345,-0.34,-0.34,-0.34,-0.345,-0.345,-0.37,-0.355,-0.345,-0.345,-0.365,-0.38,-0.38,-0.38,-0.385,-0.375,-0.39,-0.39,-0.4,-0.4,-0.395,-0.395,-0.41,-0.405,-0.415,-0.405,-0.385,-0.38,-0.38,-0.385,-0.38,-0.355,-0.34,-0.325,-0.33,-0.325,-0.305,-0.295,-0.28,-0.285,-0.28,-0.27,-0.27,-0.26,-0.25,-0.245,-0.25,-0.26,-0.255,-0.25,-0.245,-0.235,-0.23,-0.24,-0.25,-0.24,-0.23,-0.23,-0.235,-0.235,-0.24,-0.24,-0.235,-0.23,-0.235,-0.26,-0.25,-0.245,-0.235,-0.235,-0.235,-0.25,-0.26,-0.255,-0.24,-0.24,-0.24,-0.255,-0.25,-0.245,-0.245,-0.235,-0.245,-0.26,-0.26,-0.25,-0.25,-0.245,-0.245,-0.255,-0.255,-0.26,-0.255,-0.255,-0.26,-0.26,-0.26,-0.26,-0.245,-0.24,-0.255,-0.26,-0.275,-0.255,-0.255,-0.255,-0.25,-0.27,-0.265,-0.26,-0.255,-0.25,-0.255,-0.255,-0.28,-0.27,-0.27,-0.255,-0.255,N
0.985,1.0,0.86,0.55,0.195,-0.095,-0.29,-0.385,-0.43,-0.445,-0.43,-0.415,-0.395,-0.35,-0.34,-0.335,-0.325,-0.32,-0.315,-0.325,-0.325,-0.32,-0.315,-0.31,-0.315,-0.325,-0.335,-0.315,-0.305,-0.305,-0.315,-0.32,-0.32,-0.32,-0.31,-0.32,-0.3,-0.31,-0.32,-0.32,-0.305,-0.305,-0.315,-0.31,-0.315,-0.31,-0.295,-0.3,-0.295,-0.305,-0.32,-0.305,-0.3,-0.3,-0.3,-0.31,-0.32,-0.3,-0.305,-0.29,-0.295,-0.305,-0.33,-0.315,-0.31,-0.295,-0.31,-0.315,-0.32,-0.3,-0.31,-0.3,-0.295,-0.315,-0.32,-0.31,-0.305,-0.305,-0.3,-0.3,-0.305,-0.3,-0.305,-0.3,-0.3,-0.3,-0.32,-0.325,-0.315,-0.305,-0.31,-0.335,-0.35,-0.345,-0.315,-0.335,-0.33,-0.345,-0.355,-0.345,-0.345,-0.35,-0.34,-0.355,-0.365,-0.35,-0.35,-0.34,-0.345,-0.34,-0.35,-0.335,-0.315,-0.31,-0.29,-0.295,-0.29,-0.28,-0.255,-0.24,-0.235,-0.245,-0.24,-0.225,-0.22,-0.21,-0.21,-0.205,-0.21,-0.21,-0.195,-0.185,-0.19,-0.195,-0.22,-0.2,-0.2,-0.185,-0.19,-0.205,-0.205,-0.205,-0.205,-0.195,-0.195,-0.2,-0.205,-0.2,-0.2,-0.19,-0.205,-0.205,-0.21,-0.2,-0.2,-0.195,-0.205,-0.22,-0.22,-0.22,-0.21,-0.21,-0.21,-0.215,-0.23,-0.22,-0.215,-0.225,-0.22,-0.225,-0.235,-0.22,-0.22,-0.21,-0.23,-0.245,-0.245,-0.235,-0.225,-0.235,-0.23,-0.245,-0.255,-0.245,-0.235,-0.235,-0.235,N
0.915,0.925,0.81,0.525,0.19,-0.135,-0.325,-0.41,-0.39,-0.335,-0.3,-0.295,-0.295,-0.3,-0.305,-0.3,-0.29,-0.295,-0.295,-0.295,-0.31,-0.3,-0.285,-0.285,-0.3,-0.3,-0.305,-0.3,-0.295,-0.29,-0.285,-0.295,-0.295,-0.3,-0.295,-0.29,-0.305,-0.31,-0.32,-0.315,-0.29,-0.295,-0.3,-0.3,-0.31,-0.3,-0.29,-0.28,-0.29,-0.3,-0.31,-0.3,-0.29,-0.29,-0.28,-0.29,-0.32,-0.305,-0.3,-0.295,-0.305,-0.31,-0.31,-0.305,-0.31,-0.29,-0.295,-0.29,-0.3,-0.295,-0.29,-0.285,-0.295,-0.3,-0.3,-0.29,-0.285,-0.28,-0.285,-0.295,-0.295,-0.295,-0.285,-0.28,-0.285,-0.285,-0.3,-0.28,-0.295,-0.285,-0.29,-0.29,-0.305,-0.305,-0.295,-0.295,-0.3,-0.3,-0.31,-0.305,-0.29,-0.295,-0.3,-0.3,-0.31,-0.32,-0.3,-0.31,-0.295,-0.305,-0.3,-0.295,-0.27,-0.26,-0.26,-0.255,-0.265,-0.25,-0.23,-0.225,-0.22,-0.235,-0.245,-0.235,-0.22,-0.215,-0.21,-0.21,-0.23,-0.215,-0.21,-0.225,-0.225,-0.24,-0.245,-0.225,-0.23,-0.215,-0.225,-0.22,-0.235,-0.23,-0.24,-0.225,-0.225,-0.235,-0.245,-0.235,-0.23,-0.235,-0.235,-0.25,-0.27,-0.25,-0.24,-0.245,-0.25,-0.255,-0.265,-0.255,-0.255,-0.255,-0.245,-0.25,-0.27,-0.265,-0.275,-0.255,-0.265,-0.265,-0.28,-0.285,-0.28,-0.275,-0.28,-0.285,-0.285,-0.27,-0.27,-0.265,-0.27,-0.275,-0.285,-0.285,-0.285,-0.29,-0.29,N
0.85,0.76,0.46,0.085,-0.22,-0.39,-0.465,-0.445,-0.405,-0.4,-0.395,-0.4,-0.38,-0.37,-0.375,-0.38,-0.375,-0.36,-0.36,-0.345,-0.37,-0.37,-0.365,-0.365,-0.355,-0.345,-0.355,-0.35,-0.37,-0.365,-0.36,-0.365,-0.37,-0.385,-0.385,-0.385,-0.38,-0.375,-0.365,-0.375,-0.38,-0.375,-0.38,-0.385,-0.38,-0.375,-0.375,-0.36,-0.355,-0.355,-0.37,-0.385,-0.385,-0.385,-0.37,-0.355,-0.36,-0.36,-0.375,-0.365,-0.36,-0.355,-0.355,-0.36,-0.37,-0.365,-0.37,-0.36,-0.365,-0.375,-0.365,-0.375,-0.37,-0.37,-0.375,-0.385,-0.39,-0.38,-0.37,-0.37,-0.385,-0.395,-0.4,-0.395,-0.4,-0.385,-0.39,-0.405,-0.42,-0.425,-0.43,-0.42,-0.425,-0.43,-0.445,-0.425,-0.4,-0.405,-0.405,-0.42,-0.435,-0.415,-0.385,-0.38,-0.375,-0.37,-0.36,-0.335,-0.32,-0.31,-0.305,-0.31,-0.315,-0.305,-0.295,-0.295,-0.29,-0.29,-0.295,-0.29,-0.285,-0.28,-0.285,-0.31,-0.305,-0.295,-0.295,-0.295,-0.29,-0.28,-0.295,-0.28,-0.28,-0.27,-0.29,-0.305,-0.285,-0.285,-0.28,-0.29,-0.285,-0.3,-0.295,-0.295,-0.295,-0.295,-0.3,-0.32,-0.315,-0.31,-0.3,-0.285,-0.29,-0.315,-0.32,-0.305,-0.295,-0.29,-0.305,-0.325,-0.33,-0.325,-0.305,-0.31,-0.31,-0.32,-0.325,-0.335,-0.32,-0.315,-0.31,-0.325,-0.33,-0.325,-0.32,-0.315,-0.315,-0.32,-0.33,-0.325,-0.315,-0.315,-0.31,-0.33,-0.325,-0.32,-0.315,N
0.91,0.81,0.505,0.07,-0.28,-0.45,-0.47,-0.435,-0.39,-0.375,-0.38,-0.375,-0.375,-0.37,-0.365,-0.375,-0.385,-0.39,-0.375,-0.375,-0.37,-0.385,-0.39,-0.375,-0.38,-0.365,-0.375,-0.385,-0.395,-0.385,-0.365,-0.35,-0.365,-0.355,-0.37,-0.365,-0.36,-0.36,-0.36,-0.37,-0.38,-0.375,-0.375,-0.375,-0.36,-0.375,-0.385,-0.375,-0.365,-0.37,-0.36,-0.37,-0.375,-0.38,-0.38,-0.37,-0.37,-0.37,-0.38,-0.38,-0.375,-0.37,-0.37,-0.375,-0.385,-0.375,-0.37,-0.36,-0.365,-0.37,-0.39,-0.38,-0.37,-0.37,-0.385,-0.385,-0.405,-0.39,-0.385,-0.385,-0.385,-0.4,-0.41,-0.41,-0.4,-0.41,-0.4,-0.415,-0.42,-0.415,-0.405,-0.4,-0.405,-0.41,-0.425,-0.405,-0.4,-0.385,-0.38,-0.385,-0.37,-0.35,-0.335,-0.32,-0.315,-0.31,-0.325,-0.305,-0.285,-0.29,-0.27,-0.27,-0.28,-0.265,-0.255,-0.245,-0.255,-0.265,-0.27,-0.265,-0.25,-0.25,-0.25,-0.26,-0.27,-0.265,-0.26,-0.26,-0.27,-0.28,-0.28,-0.275,-0.265,-0.26,-0.265,-0.275,-0.27,-0.265,-0.26,-0.265,-0.26,-0.275,-0.28,-0.275,-0.26,-0.265,-0.27,-0.28,-0.29,-0.285,-0.28,-0.275,-0.28,-0.285,-0.305,-0.3,-0.295,-0.28,-0.29,-0.3,-0.305,-0.295,-0.29,-0.295,-0.295,-0.29,-0.315,-0.3,-0.29,-0.29,-0.295,-0.3,-0.31,-0.3,-0.295,-0.295,-0.29,-0.3,-0.295,-0.285,-0.295,-0.285,-0.285,-0.3,-0.3,-0.295,-0.285,N
0.99,0.9,0.57,0.11,-0.26,-0.435,-0.44,-0.39,-0.35,-0.34,-0.35,-0.34,-0.345,-0.34,-0.355,-0.36,-0.35,-0.35,-0.345,-0.365,-0.37,-0.365,-0.37,-0.36,-0.365,-0.365,-0.375,-0.365,-0.34,-0.355,-0.355,-0.36,-0.375,-0.36,-0.355,-0.34,-0.35,-0.36,-0.365,-0.365,-0.355,-0.34,-0.345,-0.35,-0.365,-0.36,-0.345,-0.345,-0.345,-0.35,-0.365,-0.35,-0.355,-0.34,-0.355,-0.355,-0.365,-0.36,-0.355,-0.345,-0.355,-0.365,-0.37,-0.37,-0.37,-0.345,-0.345,-0.37,-0.37,-0.36,-0.34,-0.335,-0.345,-0.34,-0.355,-0.345,-0.355,-0.35,-0.355,-0.36,-0.365,-0.355,-0.35,-0.34,-0.34,-0.35,-0.36,-0.35,-0.35,-0.355,-0.365,-0.36,-0.37,-0.365,-0.355,-0.355,-0.335,-0.35,-0.35,-0.34,-0.335,-0.315,-0.31,-0.31,-0.3,-0.29,-0.28,-0.265,-0.265,-0.265,-0.27,-0.255,-0.25,-0.245,-0.25,-0.25,-0.255,-0.25,-0.25,-0.24,-0.25,-0.26,-0.255,-0.265,-0.25,-0.23,-0.235,-0.245,-0.26,-0.265,-0.25,-0.245,-0.25,-0.26,-0.265,-0.265,-0.27,-0.26,-0.27,-0.275,-0.29,-0.275,-0.265,-0.26,-0.255,-0.27,-0.285,-0.29,-0.27,-0.27,-0.28,-0.275,-0.29,-0.29,-0.28,-0.28,-0.28,-0.285,-0.31,-0.3,-0.295,-0.28,-0.285,-0.305,-0.315,-0.305,-0.305,-0.295,-0.285,-0.305,-0.32,-0.32,-0.3,-0.3,-0.3,-0.305,-0.315,-0.31,-0.295,-0.275,-0.29,-0.295,-0.31,-0.3,-0.295,-0.29,-0.29,N
0.875,0.76,0.465,0.075,-0.25,-0.415,-0.44,-0.41,-0.365,-0.34,-0.34,-0.35,-0.345,-0.365,-0.355,-0.36,-0.34,-0.33,-0.345,-0.36,-0.36,-0.345,-0.345,-0.36,-0.355,-0.37,-0.355,-0.35,-0.335,-0.335,-0.345,-0.355,-0.34,-0.34,-0.325,-0.335,-0.355,-0.36,-0.36,-0.345,-0.345,-0.335,-0.345,-0.36,-0.345,-0.335,-0.335,-0.33,-0.35,-0.365,-0.35,-0.345,-0.325,-0.335,-0.345,-0.365,-0.355,-0.355,-0.35,-0.345,-0.345,-0.345,-0.335,-0.33,-0.32,-0.33,-0.325,-0.34,-0.33,-0.33,-0.32,-0.325,-0.345,-0.345,-0.345,-0.345,-0.325,-0.34,-0.335,-0.345,-0.335,-0.335,-0.34,-0.325,-0.34,-0.35,-0.355,-0.345,-0.335,-0.335,-0.345,-0.355,-0.355,-0.35,-0.335,-0.345,-0.35,-0.37,-0.36,-0.35,-0.335,-0.33,-0.34,-0.345,-0.33,-0.32,-0.31,-0.3,-0.305,-0.295,-0.285,-0.275,-0.275,-0.26,-0.265,-0.28,-0.27,-0.26,-0.25,-0.255,-0.255,-0.26,-0.26,-0.25,-0.24,-0.255,-0.255,-0.27,-0.26,-0.255,-0.255,-0.245,-0.25,-0.265,-0.265,-0.245,-0.255,-0.255,-0.255,-0.265,-0.265,-0.26,-0.26,-0.255,-0.27,-0.28,-0.285,-0.27,-0.255,-0.26,-0.275,-0.295,-0.295,-0.28,-0.285,-0.27,-0.29,-0.29,-0.285,-0.29,-0.285,-0.29,-0.305,-0.31,-0.29,-0.29,-0.295,-0.3,-0.315,-0.32,-0.315,-0.305,-0.295,-0.29,-0.3,-0.305,-0.31,-0.29,-0.29,-0.295,-0.31,-0.32,-0.32,-0.315,-0.31,-0.295,-0.295,N
0.825,0.885,0.785,0.515,0.17,-0.155,-0.35,-0.435,-0.455,-0.425,-0.39,-0.38,-0.365,-0.37,-0.37,-0.35,-0.355,-0.37,-0.375,-0.385,-0.365,-0.365,-0.365,-0.375,-0.365,-0.37,-0.36,-0.36,-0.37,-0.375,-0.38,-0.365,-0.37,-0.345,-0.35,-0.355,-0.37,-0.37,-0.365,-0.36,-0.36,-0.355,-0.36,-0.365,-0.355,-0.365,-0.37,-0.375,-0.37,-0.37,-0.355,-0.345,-0.36,-0.365,-0.375,-0.37,-0.37,-0.37,-0.375,-0.375,-0.38,-0.375,-0.37,-0.36,-0.365,-0.375,-0.38,-0.365,-0.355,-0.355,-0.36,-0.365,-0.375,-0.365,-0.365,-0.35,-0.345,-0.35,-0.37,-0.37,-0.36,-0.345,-0.34,-0.35,-0.37,-0.36,-0.355,-0.355,-0.36,-0.37,-0.39,-0.385,-0.38,-0.375,-0.385,-0.41,-0.415,-0.405,-0.4,-0.4,-0.395,-0.4,-0.42,-0.42,-0.415,-0.42,-0.42,-0.43,-0.435,-0.415,-0.405,-0.39,-0.375,-0.385,-0.375,-0.365,-0.345,-0.335,-0.325,-0.325,-0.32,-0.305,-0.29,-0.28,-0.285,-0.285,-0.28,-0.285,-0.27,-0.26,-0.265,-0.27,-0.28,-0.28,-0.265,-0.265,-0.265,-0.255,-0.275,-0.27,-0.265,-0.255,-0.265,-0.27,-0.28,-0.285,-0.27,-0.26,-0.265,-0.275,-0.285,-0.275,-0.27,-0.27,-0.265,-0.275,-0.295,-0.29,-0.28,-0.27,-0.275,-0.28,-0.3,-0.29,-0.28,-0.285,-0.285,-0.285,-0.295,-0.3,-0.295,-0.29,-0.29,-0.3,-0.305,-0.305,-0.295,-0.305,-0.295,-0.305,-0.31,-0.32,-0.3,-0.295,-0.3,-0.305,-0.31,N
0.905,0.925,0.77,0.44,0.045,-0.265,-0.41,-0.47,-0.445,-0.415,-0.375,-0.355,-0.355,-0.355,-0.36,-0.365,-0.365,-0.36,-0.35,-0.345,-0.36,-0.38,-0.38,-0.375,-0.36,-0.37,-0.37,-0.385,-0.37,-0.365,-0.37,-0.355,-0.37,-0.38,-0.37,-0.36,-0.35,-0.35,-0.365,-0.37,-0.37,-0.355,-0.36,-0.355,-0.37,-0.375,-0.365,-0.36,-0.36,-0.35,-0.365,-0.375,-0.365,-0.355,-0.36,-0.355,-0.365,-0.37,-0.365,-0.355,-0.345,-0.34,-0.355,-0.36,-0.375,-0.365,-0.345,-0.36,-0.365,-0.365,-0.365,-0.36,-0.355,-0.355,-0.345,-0.365,-0.35,-0.355,-0.345,-0.34,-0.35,-0.36,-0.36,-0.35,-0.345,-0.35,-0.355,-0.365,-0.37,-0.365,-0.36,-0.36,-0.38,-0.39,-0.405,-0.385,-0.375,-0.375,-0.385,-0.39,-0.39,-0.385,-0.37,-0.38,-0.385,-0.385,-0.38,-0.37,-0.365,-0.365,-0.365,-0.35,-0.345,-0.33,-0.31,-0.3,-0.3,-0.305,-0.29,-0.275,-0.26,-0.255,-0.26,-0.28,-0.26,-0.245,-0.235,-0.23,-0.235,-0.245,-0.24,-0.225,-0.23,-0.225,-0.23,-0.24,-0.24,-0.23,-0.225,-0.23,-0.24,-0.245,-0.235,-0.23,-0.225,-0.23,-0.235,-0.255,-0.26,-0.245,-0.24,-0.235,-0.24,-0.25,-0.24,-0.235,-0.23,-0.235,-0.255,-0.26,-0.26,-0.25,-0.24,-0.245,-0.25,-0.265,-0.265,-0.25,-0.24,-0.26,-0.265,-0.28,-0.27,-0.27,-0.255,-0.265,-0.265,-0.29,-0.28,-0.27,-0.265,-0.265,-0.27,-0.275,-0.27,-0.265,-0.275,N
0.99,0.95,0.735,0.365,-0.035,-0.32,-0.435,-0.455,-0.44,-0.415,-0.4,-0.375,-0.345,-0.34,-0.325,-0.325,-0.35,-0.345,-0.345,-0.335,-0.33,-0.325,-0.33,-0.34,-0.35,-0.35,-0.335,-0.335,-0.335,-0.35,-0.36,-0.345,-0.345,-0.35,-0.335,-0.335,-0.35,-0.335,-0.33,-0.32,-0.325,-0.335,-0.335,-0.335,-0.335,-0.33,-0.335,-0.33,-0.345,-0.34,-0.33,-0.32,-0.33,-0.325,-0.345,-0.34,-0.33,-0.325,-0.325,-0.325,-0.34,-0.33,-0.32,-0.32,-0.325,-0.335,-0.34,-0.33,-0.32,-0.31,-0.315,-0.32,-0.33,-0.32,-0.32,-0.32,-0.31,-0.325,-0.32,-0.33,-0.315,-0.31,-0.31,-0.33,-0.345,-0.345,-0.33,-0.33,-0.325,-0.33,-0.335,-0.325,-0.33,-0.315,-0.325,-0.325,-0.35,-0.345,-0.335,-0.315,-0.33,-0.325,-0.345,-0.345,-0.335,-0.33,-0.33,-0.335,-0.34,-0.345,-0.315,-0.295,-0.295,-0.29,-0.29,-0.275,-0.265,-0.265,-0.245,-0.25,-0.26,-0.25,-0.24,-0.225,-0.23,-0.23,-0.24,-0.235,-0.225,-0.22,-0.22,-0.225,-0.245,-0.24,-0.23,-0.23,-0.22,-0.23,-0.24,-0.235,-0.225,-0.23,-0.22,-0.235,-0.245,-0.24,-0.235,-0.235,-0.24,-0.25,-0.25,-0.25,-0.245,-0.245,-0.245,-0.255,-0.265,-0.265,-0.245,-0.24,-0.25,-0.255,-0.27,-0.265,-0.265,-0.255,-0.27,-0.27,-0.285,-0.275,-0.265,-0.26,-0.265,-0.275,-0.28,-0.29,-0.28,-0.27,-0.28,-0.28,-0.29,-0.295,-0.27,-0.265,-0.275,-0.27,-0.28,N
0.875,0.88,0.7,0.335,-0.045,-0.3,-0.4,-0.42,-0.395,-0.36,-0.335,-0.325,-0.325,-0.315,-0.33,-0.335,-0.33,-0.33,-0.325,-0.335,-0.35,-0.34,-0.34,-0.33,-0.325,-0.345,-0.35,-0.345,-0.335,-0.325,-0.335,-0.345,-0.36,-0.345,-0.345,-0.33,-0.335,-0.34,-0.355,-0.34,-0.345,-0.33,-0.33,-0.34,-0.35,-0.355,-0.35,-0.335,-0.345,-0.35,-0.36,-0.355,-0.34,-0.345,-0.345,-0.345,-0.36,-0.35,-0.345,-0.33,-0.33,-0.345,-0.345,-0.345,-0.345,-0.325,-0.33,-0.34,-0.36,-0.35,-0.345,-0.33,-0.33,-0.335,-0.345,-0.35,-0.34,-0.335,-0.345,-0.36,-0.37,-0.36,-0.36,-0.33,-0.345,-0.365,-0.37,-0.36,-0.37,-0.365,-0.365,-0.38,-0.38,-0.38,-0.365,-0.365,-0.365,-0.365,-0.375,-0.385,-0.385,-0.365,-0.365,-0.37,-0.37,-0.36,-0.34,-0.32,-0.31,-0.305,-0.31,-0.295,-0.3,-0.295,-0.275,-0.275,-0.285,-0.29,-0.27,-0.26,-0.26,-0.275,-0.28,-0.285,-0.265,-0.275,-0.27,-0.27,-0.285,-0.29,-0.275,-0.26,-0.265,-0.265,-0.285,-0.28,-0.275,-0.275,-0.275,-0.285,-0.305,-0.295,-0.28,-0.285,-0.275,-0.285,-0.305,-0.3,-0.3,-0.29,-0.29,-0.29,-0.31,-0.315,-0.295,-0.29,-0.29,-0.305,-0.32,-0.315,-0.305,-0.305,-0.315,-0.32,-0.33,-0.32,-0.32,-0.31,-0.32,-0.32,-0.34,-0.34,-0.335,-0.325,-0.315,-0.33,-0.345,-0.35,-0.34,-0.325,-0.32,-0.335,-0.34,-0.33,-0.325,-0.315,-0.32,N
1.065,1.12,1.075,0.855,0.45,0.005,-0.345,-0.49,-0.49,-0.435,-0.39,-0.385,-0.4,-0.4,-0.385,-0.39,-0.41,-0.4,-0.4,-0.395,-0.39,-0.4,-0.41,-0.405,-0.405,-0.4,-0.405,-0.41,-0.425,-0.42,-0.415,-0.4,-0.395,-0.4,-0.415,-0.405,-0.4,-0.38,-0.4,-0.39,-0.41,-0.405,-0.405,-0.395,-0.395,-0.395,-0.42,-0.415,-0.405,-0.385,-0.385,-0.395,-0.4,-0.415,-0.405,-0.39,-0.39,-0.405,-0.42,-0.415,-0.405,-0.39,-0.405,-0.4,-0.41,-0.405,-0.4,-0.39,-0.39,-0.4,-0.4,-0.41,-0.405,-0.4,-0.4,-0.405,-0.415,-0.41,-0.4,-0.395,-0.395,-0.41,-0.42,-0.415,-0.415,-0.41,-0.41,-0.415,-0.425,-0.42,-0.42,-0.41,-0.41,-0.41,-0.425,-0.42,-0.42,-0.41,-0.405,-0.41,-0.41,-0.405,-0.4,-0.385,-0.38,-0.37,-0.36,-0.35,-0.34,-0.32,-0.31,-0.32,-0.315,-0.32,-0.3,-0.3,-0.295,-0.3,-0.315,-0.305,-0.285,-0.29,-0.29,-0.3,-0.315,-0.31,-0.295,-0.29,-0.29,-0.295,-0.315,-0.3,-0.295,-0.3,-0.305,-0.305,-0.315,-0.315,-0.315,-0.315,-0.305,-0.32,-0.32,-0.33,-0.32,-0.305,-0.315,-0.32,-0.335,-0.34,-0.335,-0.315,-0.32,-0.32,-0.35,-0.35,-0.34,-0.34,-0.335,-0.335,-0.345,-0.345,-0.335,-0.325,-0.335,-0.35,-0.35,-0.355,-0.34,-0.33,-0.335,-0.345,-0.355,-0.35,-0.345,-0.335,-0.34,-0.34,-0.35,-0.35,-0.345,-0.34,-0.34,-0.355,-0.36,-0.355,-0.345,N
0.855,0.895,0.735,0.405,-0.015,-0.35,-0.5,-0.515,-0.47,-0.425,-0.405,-0.39,-0.395,-0.395,-0.405,-0.4,-0.4,-0.4,-0.405,-0.405,-0.415,-0.4,-0.41,-0.395,-0.4,-0.405,-0.42,-0.415,-0.405,-0.395,-0.4,-0.41,-0.42,-0.42,-0.395,-0.395,-0.39,-0.41,-0.415,-0.405,-0.4,-0.395,-0.39,-0.4,-0.415,-0.405,-0.395,-0.4,-0.395,-0.4,-0.415,-0.41,-0.405,-0.39,-0.4,-0.4,-0.405,-0.41,-0.395,-0.395,-0.39,-0.39,-0.4,-0.405,-0.385,-0.395,-0.385,-0.4,-0.405,-0.4,-0.39,-0.39,-0.385,-0.395,-0.405,-0.395,-0.395,-0.38,-0.385,-0.38,-0.395,-0.405,-0.39,-0.385,-0.385,-0.4,-0.405,-0.4,-0.395,-0.38,-0.38,-0.395,-0.4,-0.4,-0.405,-0.405,-0.41,-0.415,-0.42,-0.41,-0.39,-0.385,-0.365,-0.37,-0.375,-0.36,-0.365,-0.36,-0.33,-0.35,-0.34,-0.32,-0.295,-0.285,-0.285,-0.305,-0.31,-0.3,-0.305,-0.28,-0.28,-0.28,-0.295,-0.29,-0.285,-0.285,-0.29,-0.29,-0.31,-0.31,-0.295,-0.295,-0.3,-0.3,-0.31,-0.3,-0.295,-0.295,-0.295,-0.29,-0.32,-0.305,-0.305,-0.31,-0.305,-0.32,-0.325,-0.32,-0.315,-0.305,-0.305,-0.305,-0.315,-0.33,-0.315,-0.31,-0.31,-0.35,-0.345,-0.35,-0.34,-0.335,-0.335,-0.345,-0.355,-0.35,-0.335,-0.335,-0.33,-0.34,-0.34,-0.34,-0.32,-0.33,-0.335,-0.335,-0.35,-0.345,-0.35,-0.345,-0.34,-0.355,-0.365,-0.355,-0.35,-0.34,-0.34,N
0.91,0.96,0.865,0.64,0.335,0.04,-0.185,-0.33,-0.43,-0.51,-0.515,-0.495,-0.465,-0.44,-0.41,-0.405,-0.4,-0.39,-0.39,-0.385,-0.385,-0.39,-0.39,-0.37,-0.38,-0.385,-0.39,-0.39,-0.38,-0.385,-0.38,-0.39,-0.395,-0.395,-0.39,-0.385,-0.38,-0.38,-0.4,-0.39,-0.375,-0.385,-0.385,-0.39,-0.395,-0.39,-0.38,-0.38,-0.375,-0.38,-0.395,-0.38,-0.375,-0.37,-0.375,-0.38,-0.395,-0.385,-0.385,-0.375,-0.38,-0.38,-0.395,-0.39,-0.39,-0.38,-0.38,-0.385,-0.39,-0.375,-0.37,-0.37,-0.365,-0.38,-0.395,-0.385,-0.385,-0.385,-0.375,-0.38,-0.39,-0.375,-0.375,-0.375,-0.375,-0.375,-0.41,-0.4,-0.39,-0.385,-0.39,-0.395,-0.415,-0.415,-0.415,-0.41,-0.41,-0.425,-0.425,-0.43,-0.425,-0.425,-0.425,-0.425,-0.435,-0.43,-0.43,-0.4,-0.395,-0.415,-0.41,-0.395,-0.38,-0.365,-0.35,-0.35,-0.355,-0.345,-0.315,-0.3,-0.3,-0.305,-0.31,-0.305,-0.3,-0.28,-0.28,-0.295,-0.29,-0.29,-0.29,-0.27,-0.265,-0.275,-0.285,-0.28,-0.285,-0.275,-0.27,-0.275,-0.28,-0.28,-0.265,-0.26,-0.265,-0.275,-0.285,-0.29,-0.28,-0.27,-0.265,-0.28,-0.28,-0.285,-0.28,-0.27,-0.28,-0.29,-0.295,-0.29,-0.285,-0.275,-0.285,-0.285,-0.31,-0.31,-0.3,-0.295,-0.305,-0.32,-0.33,-0.33,-0.31,-0.305,-0.295,-0.315,-0.315,-0.32,-0.31,-0.3,-0.305,-0.3,-0.325,-0.32,-0.315,-0.32,-0.305,N
0.91,0.955,0.845,0.545,0.135,-0.23,-0.43,-0.475,-0.43,-0.38,-0.375,-0.37,-0.375,-0.37,-0.36,-0.365,-0.375,-0.375,-0.385,-0.37,-0.36,-0.375,-0.375,-0.375,-0.385,-0.37,-0.37,-0.375,-0.37,-0.385,-0.38,-0.375,-0.36,-0.355,-0.385,-0.385,-0.38,-0.37,-0.375,-0.38,-0.375,-0.375,-0.375,-0.38,-0.365,-0.36,-0.375,-0.38,-0.37,-0.375,-0.36,-0.36,-0.355,-0.37,-0.375,-0.355,-0.355,-0.345,-0.36,-0.37,-0.375,-0.37,-0.38,-0.36,-0.37,-0.38,-0.375,-0.365,-0.355,-0.35,-0.36,-0.37,-0.37,-0.365,-0.345,-0.355,-0.36,-0.37,-0.355,-0.36,-0.35,-0.36,-0.37,-0.37,-0.365,-0.36,-0.36,-0.37,-0.365,-0.385,-0.37,-0.365,-0.365,-0.355,-0.37,-0.365,-0.375,-0.375,-0.37,-0.37,-0.37,-0.38,-0.385,-0.37,-0.36,-0.365,-0.37,-0.375,-0.36,-0.36,-0.34,-0.335,-0.33,-0.345,-0.33,-0.31,-0.305,-0.29,-0.295,-0.305,-0.295,-0.28,-0.265,-0.26,-0.265,-0.275,-0.27,-0.255,-0.24,-0.245,-0.265,-0.285,-0.27,-0.26,-0.255,-0.255,-0.265,-0.28,-0.285,-0.28,-0.255,-0.255,-0.27,-0.275,-0.265,-0.27,-0.275,-0.275,-0.28,-0.28,-0.285,-0.28,-0.27,-0.265,-0.28,-0.295,-0.295,-0.28,-0.285,-0.29,-0.305,-0.32,-0.305,-0.3,-0.29,-0.3,-0.305,-0.305,-0.3,-0.3,-0.29,-0.31,-0.315,-0.315,-0.315,-0.31,-0.305,-0.31,-0.32,-0.32,-0.325,-0.32,-0.31,-0.31,-0.315,-0.315,-0.33,N
0.86,0.735,0.46,0.12,-0.205,-0.425,-0.49,-0.47,-0.43,-0.38,-0.38,-0.385,-0.39,-0.405,-0.375,-0.375,-0.375,-0.38,-0.385,-0.395,-0.395,-0.385,-0.385,-0.39,-0.4,-0.395,-0.39,-0.385,-0.38,-0.395,-0.405,-0.405,-0.395,-0.385,-0.39,-0.39,-0.39,-0.39,-0.39,-0.385,-0.39,-0.395,-0.395,-0.4,-0.385,-0.375,-0.38,-0.385,-0.395,-0.395,-0.4,-0.385,-0.395,-0.395,-0.4,-0.4,-0.395,-0.385,-0.39,-0.39,-0.39,-0.4,-0.39,-0.385,-0.385,-0.395,-0.4,-0.4,-0.39,-0.39,-0.385,-0.39,-0.395,-0.385,-0.37,-0.375,-0.375,-0.39,-0.395,-0.385,-0.385,-0.375,-0.375,-0.385,-0.405,-0.41,-0.4,-0.375,-0.39,-0.39,-0.4,-0.41,-0.42,-0.405,-0.41,-0.405,-0.425,-0.415,-0.4,-0.405,-0.415,-0.415,-0.425,-0.425,-0.425,-0.405,-0.41,-0.425,-0.42,-0.42,-0.395,-0.39,-0.38,-0.375,-0.375,-0.375,-0.355,-0.34,-0.34,-0.34,-0.35,-0.345,-0.335,-0.31,-0.32,-0.32,-0.325,-0.32,-0.315,-0.315,-0.31,-0.32,-0.33,-0.33,-0.32,-0.315,-0.32,-0.34,-0.35,-0.345,-0.33,-0.325,-0.325,-0.335,-0.345,-0.345,-0.34,-0.325,-0.33,-0.34,-0.34,-0.355,-0.345,-0.355,-0.355,-0.365,-0.37,-0.36,-0.35,-0.345,-0.37,-0.375,-0.38,-0.375,-0.36,-0.35,-0.365,-0.355,-0.365,-0.375,-0.365,-0.355,-0.365,-0.37,-0.385,-0.385,-0.37,-0.375,-0.38,-0.39,-0.395,-0.39,-0.37,-0.36,-0.355,-0.385,-0.38,N
0.77,0.82,0.66,0.285,-0.125,-0.41,-0.54,-0.55,-0.51,-0.465,-0.455,-0.445,-0.445,-0.435,-0.42,-0.42,-0.425,-0.44,-0.45,-0.45,-0.435,-0.44,-0.44,-0.45,-0.46,-0.45,-0.435,-0.44,-0.435,-0.455,-0.47,-0.45,-0.445,-0.44,-0.44,-0.445,-0.45,-0.45,-0.44,-0.44,-0.44,-0.44,-0.455,-0.445,-0.44,-0.435,-0.445,-0.455,-0.465,-0.455,-0.44,-0.45,-0.45,-0.455,-0.445,-0.44,-0.435,-0.445,-0.44,-0.445,-0.45,-0.445,-0.435,-0.44,-0.445,-0.46,-0.45,-0.44,-0.43,-0.43,-0.44,-0.45,-0.45,-0.435,-0.44,-0.44,-0.445,-0.46,-0.465,-0.46,-0.435,-0.44,-0.445,-0.46,-0.46,-0.46,-0.45,-0.46,-0.47,-0.47,-0.48,-0.465,-0.455,-0.475,-0.48,-0.475,-0.495,-0.495,-0.475,-0.485,-0.49,-0.495,-0.505,-0.485,-0.485,-0.475,-0.47,-0.46,-0.46,-0.445,-0.415,-0.41,-0.405,-0.395,-0.4,-0.38,-0.365,-0.35,-0.345,-0.355,-0.335,-0.335,-0.32,-0.325,-0.32,-0.34,-0.33,-0.315,-0.31,-0.325,-0.325,-0.325,-0.335,-0.33,-0.315,-0.33,-0.335,-0.345,-0.345,-0.33,-0.325,-0.335,-0.335,-0.345,-0.34,-0.34,-0.325,-0.335,-0.34,-0.355,-0.365,-0.36,-0.35,-0.35,-0.35,-0.36,-0.365,-0.355,-0.35,-0.35,-0.355,-0.365,-0.36,-0.345,-0.335,-0.35,-0.36,-0.36,-0.375,-0.365,-0.355,-0.36,-0.365,-0.365,-0.365,-0.375,-0.35,-0.355,-0.37,-0.38,-0.375,-0.36,-0.35,-0.36,-0.365,-0.365,-0.375,N
0.955,0.885,0.62,0.18,-0.22,-0.47,-0.555,-0.54,-0.5,-0.46,-0.43,-0.41,-0.42,-0.42,-0.405,-0.405,-0.42,-0.425,-0.425,-0.425,-0.41,-0.41,-0.425,-0.425,-0.44,-0.43,-0.415,-0.415,-0.415,-0.435,-0.425,-0.425,-0.41,-0.415,-0.415,-0.425,-0.425,-0.415,-0.405,-0.41,-0.42,-0.415,-0.43,-0.415,-0.405,-0.4,-0.41,-0.415,-0.42,-0.405,-0.395,-0.395,-0.405,-0.41,-0.415,-0.4,-0.4,-0.39,-0.41,-0.41,-0.415,-0.4,-0.39,-0.4,-0.4,-0.415,-0.415,-0.405,-0.4,-0.405,-0.405,-0.41,-0.42,-0.405,-0.395,-0.395,-0.385,-0.4,-0.42,-0.4,-0.4,-0.4,-0.41,-0.41,-0.425,-0.415,-0.41,-0.405,-0.425,-0.43,-0.44,-0.435,-0.42,-0.435,-0.44,-0.455,-0.445,-0.44,-0.425,-0.42,-0.43,-0.425,-0.41,-0.4,-0.38,-0.38,-0.375,-0.36,-0.36,-0.34,-0.325,-0.315,-0.33,-0.325,-0.335,-0.305,-0.295,-0.295,-0.305,-0.31,-0.315,-0.3,-0.29,-0.29,-0.3,-0.305,-0.31,-0.305,-0.295,-0.29,-0.31,-0.31,-0.31,-0.31,-0.305,-0.31,-0.295,-0.305,-0.32,-0.31,-0.305,-0.3,-0.32,-0.325,-0.325,-0.315,-0.31,-0.29,-0.31,-0.315,-0.315,-0.315,-0.305,-0.305,-0.315,-0.345,-0.335,-0.325,-0.31,-0.31,-0.315,-0.335,-0.33,-0.32,-0.32,-0.32,-0.335,-0.33,-0.34,-0.34,-0.32,-0.325,-0.33,-0.33,-0.335,-0.335,-0.325,-0.32,-0.335,-0.335,-0.345,-0.33,-0.32,-0.32,-0.33,-0.34,-0.345,N
0.945,0.96,0.785,0.445,0.055,-0.245,-0.435,-0.525,-0.515,-0.49,-0.44,-0.39,-0.37,-0.38,-0.385,-0.39,-0.365,-0.36,-0.36,-0.37,-0.38,-0.385,-0.375,-0.36,-0.36,-0.365,-0.375,-0.395,-0.37,-0.355,-0.38,-0.365,-0.385,-0.37,-0.355,-0.36,-0.355,-0.365,-0.365,-0.37,-0.37,-0.36,-0.355,-0.355,-0.36,-0.38,-0.365,-0.355,-0.355,-0.355,-0.365,-0.365,-0.365,-0.35,-0.345,-0.36,-0.355,-0.37,-0.36,-0.355,-0.355,-0.36,-0.36,-0.365,-0.355,-0.35,-0.35,-0.36,-0.36,-0.37,-0.355,-0.34,-0.35,-0.355,-0.355,-0.36,-0.345,-0.35,-0.355,-0.36,-0.36,-0.36,-0.365,-0.35,-0.355,-0.36,-0.37,-0.37,-0.37,-0.355,-0.355,-0.355,-0.365,-0.37,-0.365,-0.355,-0.365,-0.365,-0.36,-0.375,-0.365,-0.35,-0.35,-0.365,-0.365,-0.365,-0.355,-0.34,-0.32,-0.33,-0.325,-0.32,-0.3,-0.29,-0.28,-0.28,-0.275,-0.285,-0.265,-0.255,-0.26,-0.245,-0.25,-0.26,-0.25,-0.235,-0.24,-0.245,-0.255,-0.26,-0.245,-0.24,-0.245,-0.26,-0.265,-0.27,-0.255,-0.25,-0.255,-0.255,-0.26,-0.27,-0.265,-0.255,-0.26,-0.27,-0.27,-0.265,-0.265,-0.255,-0.25,-0.265,-0.275,-0.29,-0.275,-0.27,-0.26,-0.28,-0.29,-0.29,-0.285,-0.285,-0.275,-0.295,-0.295,-0.3,-0.29,-0.285,-0.29,-0.3,-0.32,-0.32,-0.295,-0.285,-0.29,-0.3,-0.315,-0.32,-0.31,-0.315,-0.3,-0.305,-0.315,-0.31,-0.295,-0.3,-0.3,N
0.94,0.815,0.595,0.33,0.075,-0.125,-0.255,-0.34,-0.39,-0.455,-0.505,-0.545,-0.56,-0.52,-0.445,-0.42,-0.42,-0.425,-0.425,-0.415,-0.41,-0.41,-0.41,-0.41,-0.415,-0.415,-0.405,-0.415,-0.425,-0.43,-0.44,-0.43,-0.405,-0.405,-0.41,-0.42,-0.42,-0.43,-0.425,-0.405,-0.4,-0.41,-0.435,-0.43,-0.435,-0.415,-0.43,-0.415,-0.415,-0.425,-0.425,-0.41,-0.41,-0.42,-0.435,-0.425,-0.425,-0.42,-0.43,-0.43,-0.44,-0.44,-0.425,-0.42,-0.42,-0.425,-0.435,-0.435,-0.425,-0.415,-0.42,-0.42,-0.42,-0.425,-0.43,-0.42,-0.415,-0.42,-0.42,-0.42,-0.425,-0.42,-0.42,-0.42,-0.44,-0.445,-0.44,-0.44,-0.435,-0.455,-0.465,-0.46,-0.47,-0.465,-0.46,-0.475,-0.485,-0.485,-0.5,-0.48,-0.47,-0.49,-0.49,-0.485,-0.48,-0.45,-0.455,-0.455,-0.445,-0.435,-0.415,-0.4,-0.385,-0.385,-0.37,-0.37,-0.36,-0.35,-0.34,-0.335,-0.34,-0.345,-0.335,-0.32,-0.315,-0.325,-0.335,-0.33,-0.325,-0.31,-0.315,-0.32,-0.32,-0.325,-0.325,-0.315,-0.315,-0.32,-0.325,-0.345,-0.325,-0.32,-0.32,-0.335,-0.345,-0.345,-0.35,-0.335,-0.33,-0.335,-0.35,-0.345,-0.34,-0.335,-0.33,-0.345,-0.35,-0.35,-0.34,-0.33,-0.34,-0.345,-0.36,-0.365,-0.345,-0.34,-0.34,-0.355,-0.365,-0.36,-0.35,-0.345,-0.345,-0.355,-0.37,-0.37,-0.355,-0.355,-0.345,-0.35,-0.37,-0.36,-0.365,-0.36,-0.355,-0.355,-0.36,N
0.915,0.925,0.79,0.465,0.065,-0.3,-0.495,-0.54,-0.505,-0.44,-0.415,-0.41,-0.435,-0.435,-0.44,-0.425,-0.425,-0.425,-0.43,-0.435,-0.445,-0.44,-0.435,-0.43,-0.43,-0.43,-0.445,-0.44,-0.435,-0.435,-0.435,-0.44,-0.445,-0.44,-0.405,-0.425,-0.42,-0.44,-0.44,-0.425,-0.44,-0.435,-0.425,-0.44,-0.45,-0.425,-0.42,-0.42,-0.425,-0.43,-0.435,-0.42,-0.41,-0.42,-0.425,-0.43,-0.435,-0.435,-0.425,-0.43,-0.435,-0.44,-0.435,-0.435,-0.425,-0.425,-0.435,-0.42,-0.435,-0.435,-0.42,-0.425,-0.425,-0.43,-0.43,-0.425,-0.42,-0.42,-0.43,-0.43,-0.435,-0.435,-0.435,-0.43,-0.44,-0.45,-0.465,-0.46,-0.445,-0.45,-0.455,-0.46,-0.455,-0.46,-0.46,-0.445,-0.455,-0.465,-0.47,-0.455,-0.44,-0.435,-0.455,-0.445,-0.435,-0.43,-0.41,-0.415,-0.41,-0.405,-0.405,-0.385,-0.375,-0.375,-0.375,-0.365,-0.365,-0.355,-0.345,-0.335,-0.35,-0.345,-0.355,-0.345,-0.34,-0.32,-0.325,-0.34,-0.34,-0.335,-0.32,-0.32,-0.325,-0.345,-0.345,-0.33,-0.33,-0.335,-0.33,-0.345,-0.34,-0.345,-0.335,-0.335,-0.345,-0.35,-0.35,-0.345,-0.34,-0.34,-0.345,-0.36,-0.37,-0.365,-0.35,-0.365,-0.36,-0.365,-0.365,-0.37,-0.355,-0.36,-0.365,-0.375,-0.38,-0.365,-0.365,-0.365,-0.37,-0.38,-0.385,-0.375,-0.38,-0.375,-0.37,-0.385,-0.385,-0.38,-0.375,-0.365,-0.37,-0.39,-0.39,-0.375,-0.37,-0.375,-0.37,N
0.89,0.85,0.6,0.23,-0.16,-0.415,-0.535,-0.555,-0.54,-0.485,-0.44,-0.435,-0.44,-0.45,-0.44,-0.45,-0.445,-0.445,-0.45,-0.45,-0.455,-0.455,-0.45,-0.445,-0.435,-0.435,-0.455,-0.445,-0.43,-0.425,-0.42,-0.43,-0.445,-0.445,-0.445,-0.43,-0.435,-0.44,-0.445,-0.445,-0.435,-0.435,-0.445,-0.45,-0.44,-0.45,-0.435,-0.435,-0.445,-0.435,-0.435,-0.44,-0.44,-0.425,-0.42,-0.43,-0.435,-0.45,-0.445,-0.44,-0.44,-0.435,-0.435,-0.445,-0.44,-0.44,-0.43,-0.425,-0.435,-0.44,-0.43,-0.425,-0.425,-0.425,-0.45,-0.445,-0.425,-0.425,-0.425,-0.435,-0.44,-0.445,-0.43,-0.43,-0.42,-0.43,-0.44,-0.45,-0.445,-0.44,-0.44,-0.44,-0.455,-0.46,-0.44,-0.435,-0.435,-0.445,-0.455,-0.46,-0.445,-0.43,-0.43,-0.42,-0.425,-0.425,-0.41,-0.39,-0.385,-0.395,-0.39,-0.385,-0.37,-0.355,-0.35,-0.345,-0.345,-0.355,-0.34,-0.335,-0.33,-0.335,-0.335,-0.345,-0.34,-0.33,-0.315,-0.33,-0.34,-0.34,-0.325,-0.315,-0.33,-0.325,-0.35,-0.345,-0.33,-0.315,-0.325,-0.33,-0.34,-0.345,-0.34,-0.33,-0.325,-0.335,-0.35,-0.36,-0.345,-0.335,-0.33,-0.345,-0.36,-0.36,-0.35,-0.35,-0.35,-0.345,-0.365,-0.37,-0.37,-0.355,-0.355,-0.365,-0.38,-0.38,-0.37,-0.37,-0.37,-0.37,-0.385,-0.385,-0.38,-0.37,-0.365,-0.375,-0.38,-0.375,-0.38,-0.37,-0.365,-0.375,-0.385,-0.385,-0.39,-0.375,-0.365,N
0.895,0.795,0.51,0.1,-0.285,-0.5,-0.55,-0.505,-0.47,-0.44,-0.445,-0.425,-0.43,-0.43,-0.43,-0.44,-0.435,-0.43,-0.435,-0.42,-0.415,-0.425,-0.44,-0.44,-0.435,-0.42,-0.43,-0.44,-0.45,-0.435,-0.44,-0.43,-0.45,-0.455,-0.445,-0.44,-0.43,-0.43,-0.43,-0.435,-0.435,-0.435,-0.41,-0.42,-0.43,-0.44,-0.445,-0.43,-0.43,-0.42,-0.425,-0.43,-0.435,-0.43,-0.425,-0.42,-0.415,-0.435,-0.445,-0.43,-0.42,-0.425,-0.42,-0.43,-0.435,-0.425,-0.415,-0.415,-0.425,-0.435,-0.43,-0.42,-0.415,-0.41,-0.42,-0.42,-0.44,-0.415,-0.43,-0.425,-0.425,-0.44,-0.43,-0.435,-0.425,-0.425,-0.44,-0.45,-0.45,-0.44,-0.435,-0.43,-0.435,-0.445,-0.445,-0.43,-0.425,-0.43,-0.43,-0.43,-0.435,-0.425,-0.42,-0.42,-0.425,-0.42,-0.405,-0.395,-0.38,-0.38,-0.36,-0.365,-0.36,-0.33,-0.315,-0.32,-0.315,-0.33,-0.32,-0.305,-0.305,-0.305,-0.305,-0.305,-0.305,-0.295,-0.295,-0.285,-0.285,-0.3,-0.305,-0.3,-0.295,-0.3,-0.305,-0.305,-0.305,-0.305,-0.3,-0.295,-0.31,-0.32,-0.315,-0.305,-0.31,-0.31,-0.305,-0.32,-0.33,-0.32,-0.31,-0.31,-0.31,-0.32,-0.325,-0.315,-0.315,-0.31,-0.315,-0.33,-0.335,-0.33,-0.315,-0.32,-0.33,-0.33,-0.335,-0.335,-0.335,-0.325,-0.335,-0.345,-0.345,-0.34,-0.33,-0.33,-0.33,-0.34,-0.35,-0.335,-0.33,-0.33,-0.325,-0.335,-0.345,-0.325,-0.325,N
0.995,1.035,0.97,0.715,0.295,-0.12,-0.385,-0.48,-0.465,-0.41,-0.37,-0.375,-0.375,-0.365,-0.36,-0.355,-0.355,-0.37,-0.385,-0.37,-0.355,-0.35,-0.37,-0.375,-0.385,-0.375,-0.36,-0.365,-0.365,-0.375,-0.385,-0.37,-0.355,-0.355,-0.37,-0.37,-0.37,-0.36,-0.35,-0.36,-0.365,-0.37,-0.365,-0.36,-0.35,-0.35,-0.345,-0.375,-0.37,-0.35,-0.335,-0.345,-0.355,-0.345,-0.345,-0.34,-0.345,-0.345,-0.35,-0.35,-0.355,-0.345,-0.34,-0.345,-0.345,-0.355,-0.37,-0.355,-0.35,-0.34,-0.35,-0.35,-0.35,-0.365,-0.34,-0.345,-0.335,-0.345,-0.345,-0.335,-0.335,-0.33,-0.345,-0.35,-0.35,-0.35,-0.35,-0.34,-0.345,-0.36,-0.365,-0.36,-0.35,-0.355,-0.36,-0.37,-0.37,-0.355,-0.35,-0.35,-0.345,-0.34,-0.34,-0.32,-0.305,-0.305,-0.305,-0.285,-0.295,-0.29,-0.27,-0.27,-0.25,-0.265,-0.28,-0.26,-0.24,-0.245,-0.25,-0.25,-0.26,-0.255,-0.235,-0.24,-0.235,-0.245,-0.25,-0.25,-0.245,-0.24,-0.245,-0.26,-0.26,-0.26,-0.245,-0.245,-0.25,-0.26,-0.25,-0.25,-0.25,-0.25,-0.26,-0.275,-0.275,-0.27,-0.26,-0.255,-0.26,-0.27,-0.28,-0.265,-0.26,-0.27,-0.28,-0.285,-0.285,-0.275,-0.255,-0.27,-0.275,-0.28,-0.29,-0.28,-0.28,-0.28,-0.285,-0.29,-0.3,-0.285,-0.275,-0.27,-0.29,-0.31,-0.305,-0.29,-0.285,-0.285,-0.29,-0.3,-0.295,-0.295,-0.29,-0.285,-0.3,-0.305,-0.315,N
0.955,0.885,0.715,0.45,0.15,-0.125,-0.34,-0.44,-0.48,-0.475,-0.425,-0.39,-0.375,-0.38,-0.36,-0.365,-0.355,-0.365,-0.365,-0.36,-0.355,-0.35,-0.345,-0.35,-0.365,-0.36,-0.35,-0.345,-0.355,-0.345,-0.35,-0.355,-0.345,-0.335,-0.35,-0.37,-0.37,-0.375,-0.36,-0.345,-0.35,-0.35,-0.355,-0.37,-0.36,-0.35,-0.34,-0.355,-0.36,-0.37,-0.355,-0.35,-0.345,-0.355,-0.355,-0.36,-0.36,-0.35,-0.355,-0.355,-0.365,-0.375,-0.355,-0.345,-0.345,-0.355,-0.36,-0.355,-0.345,-0.34,-0.345,-0.345,-0.36,-0.36,-0.35,-0.34,-0.35,-0.355,-0.37,-0.365,-0.34,-0.35,-0.345,-0.35,-0.355,-0.355,-0.345,-0.35,-0.35,-0.355,-0.365,-0.375,-0.365,-0.36,-0.37,-0.375,-0.385,-0.38,-0.375,-0.36,-0.375,-0.405,-0.39,-0.405,-0.415,-0.395,-0.39,-0.39,-0.395,-0.385,-0.37,-0.35,-0.35,-0.355,-0.35,-0.335,-0.32,-0.325,-0.315,-0.32,-0.315,-0.32,-0.295,-0.28,-0.285,-0.285,-0.29,-0.295,-0.285,-0.27,-0.265,-0.265,-0.28,-0.285,-0.265,-0.26,-0.26,-0.265,-0.27,-0.28,-0.255,-0.26,-0.27,-0.295,-0.295,-0.295,-0.28,-0.255,-0.26,-0.26,-0.28,-0.285,-0.285,-0.285,-0.265,-0.27,-0.29,-0.305,-0.295,-0.285,-0.27,-0.285,-0.29,-0.305,-0.295,-0.28,-0.29,-0.295,-0.305,-0.31,-0.315,-0.3,-0.285,-0.285,-0.295,-0.32,-0.305,-0.305,-0.31,-0.31,-0.32,-0.32,-0.3,-0.29,-0.3,-0.29,-0.305,N
0.925,0.885,0.63,0.24,-0.14,-0.37,-0.455,-0.475,-0.44,-0.4,-0.39,-0.375,-0.38,-0.365,-0.375,-0.38,-0.375,-0.375,-0.385,-0.375,-0.37,-0.385,-0.39,-0.395,-0.38,-0.37,-0.385,-0.39,-0.395,-0.385,-0.375,-0.375,-0.385,-0.39,-0.4,-0.395,-0.38,-0.385,-0.395,-0.39,-0.385,-0.385,-0.38,-0.375,-0.38,-0.37,-0.385,-0.38,-0.375,-0.365,-0.375,-0.395,-0.375,-0.385,-0.375,-0.375,-0.38,-0.375,-0.385,-0.375,-0.37,-0.37,-0.38,-0.385,-0.395,-0.375,-0.375,-0.375,-0.375,-0.375,-0.4,-0.37,-0.37,-0.365,-0.365,-0.385,-0.38,-0.37,-0.36,-0.37,-0.38,-0.375,-0.385,-0.385,-0.395,-0.38,-0.4,-0.4,-0.41,-0.405,-0.405,-0.4,-0.405,-0.42,-0.42,-0.415,-0.415,-0.415,-0.415,-0.43,-0.42,-0.41,-0.405,-0.4,-0.4,-0.4,-0.4,-0.39,-0.37,-0.35,-0.345,-0.34,-0.345,-0.32,-0.31,-0.3,-0.29,-0.29,-0.295,-0.29,-0.275,-0.275,-0.28,-0.28,-0.28,-0.265,-0.26,-0.26,-0.26,-0.265,-0.28,-0.265,-0.25,-0.255,-0.27,-0.27,-0.275,-0.27,-0.26,-0.265,-0.26,-0.275,-0.275,-0.28,-0.265,-0.26,-0.26,-0.275,-0.285,-0.28,-0.265,-0.265,-0.265,-0.275,-0.285,-0.28,-0.28,-0.275,-0.285,-0.285,-0.29,-0.29,-0.275,-0.285,-0.285,-0.29,-0.31,-0.305,-0.295,-0.28,-0.29,-0.305,-0.3,-0.31,-0.295,-0.29,-0.305,-0.3,-0.3,-0.305,-0.29,-0.29,-0.295,-0.31,-0.31,-0.3,-0.305,N
1.01,0.975,0.735,0.295,-0.12,-0.4,-0.475,-0.435,-0.365,-0.35,-0.355,-0.365,-0.36,-0.36,-0.36,-0.35,-0.35,-0.365,-0.36,-0.36,-0.35,-0.36,-0.37,-0.39,-0.375,-0.375,-0.37,-0.37,-0.375,-0.39,-0.375,-0.37,-0.37,-0.375,-0.37,-0.385,-0.38,-0.375,-0.36,-0.365,-0.38,-0.375,-0.37,-0.365,-0.36,-0.365,-0.37,-0.38,-0.37,-0.36,-0.37,-0.375,-0.375,-0.37,-0.365,-0.365,-0.355,-0.37,-0.38,-0.385,-0.38,-0.36,-0.35,-0.355,-0.365,-0.37,-0.35,-0.345,-0.33,-0.335,-0.355,-0.35,-0.355,-0.34,-0.345,-0.335,-0.345,-0.365,-0.355,-0.345,-0.345,-0.345,-0.355,-0.37,-0.35,-0.355,-0.35,-0.355,-0.36,-0.365,-0.365,-0.355,-0.36,-0.35,-0.36,-0.36,-0.37,-0.375,-0.355,-0.35,-0.355,-0.365,-0.35,-0.335,-0.34,-0.34,-0.335,-0.325,-0.32,-0.3,-0.3,-0.285,-0.29,-0.29,-0.285,-0.27,-0.26,-0.26,-0.26,-0.275,-0.265,-0.26,-0.25,-0.265,-0.25,-0.26,-0.25,-0.25,-0.24,-0.24,-0.26,-0.265,-0.27,-0.255,-0.245,-0.245,-0.25,-0.265,-0.265,-0.255,-0.265,-0.26,-0.27,-0.28,-0.275,-0.255,-0.265,-0.27,-0.28,-0.295,-0.285,-0.27,-0.27,-0.275,-0.29,-0.3,-0.29,-0.28,-0.28,-0.285,-0.295,-0.295,-0.29,-0.285,-0.28,-0.29,-0.305,-0.31,-0.3,-0.295,-0.295,-0.305,-0.305,-0.325,-0.31,-0.305,-0.305,-0.305,-0.305,-0.32,-0.305,-0.295,-0.29,-0.305,-0.315,-0.32,-0.32,N
0.92,0.825,0.51,0.11,-0.23,-0.41,-0.46,-0.45,-0.415,-0.4,-0.385,-0.375,-0.37,-0.37,-0.38,-0.375,-0.375,-0.37,-0.375,-0.375,-0.375,-0.385,-0.375,-0.365,-0.375,-0.36,-0.38,-0.405,-0.395,-0.38,-0.37,-0.38,-0.38,-0.39,-0.375,-0.365,-0.37,-0.37,-0.37,-0.38,-0.38,-0.375,-0.38,-0.37,-0.38,-0.38,-0.375,-0.37,-0.37,-0.37,-0.37,-0.39,-0.385,-0.385,-0.385,-0.38,-0.39,-0.4,-0.385,-0.38,-0.38,-0.37,-0.38,-0.39,-0.385,-0.385,-0.365,-0.38,-0.38,-0.39,-0.39,-0.375,-0.365,-0.37,-0.375,-0.375,-0.355,-0.37,-0.37,-0.38,-0.4,-0.405,-0.41,-0.4,-0.4,-0.405,-0.425,-0.435,-0.43,-0.44,-0.43,-0.435,-0.445,-0.445,-0.435,-0.44,-0.425,-0.415,-0.42,-0.42,-0.41,-0.395,-0.365,-0.35,-0.35,-0.355,-0.33,-0.31,-0.29,-0.29,-0.295,-0.295,-0.285,-0.28,-0.27,-0.27,-0.275,-0.275,-0.265,-0.27,-0.255,-0.25,-0.26,-0.27,-0.26,-0.255,-0.26,-0.255,-0.255,-0.285,-0.265,-0.265,-0.25,-0.26,-0.27,-0.28,-0.27,-0.27,-0.27,-0.265,-0.27,-0.28,-0.275,-0.26,-0.265,-0.28,-0.28,-0.29,-0.28,-0.275,-0.275,-0.28,-0.285,-0.28,-0.285,-0.285,-0.285,-0.28,-0.28,-0.29,-0.29,-0.285,-0.285,-0.29,-0.305,-0.305,-0.3,-0.295,-0.29,-0.305,-0.285,-0.31,-0.3,-0.295,-0.285,-0.31,-0.305,-0.305,-0.3,-0.3,-0.28,-0.285,-0.29,-0.3,-0.29,-0.29,-0.275,N
0.975,0.99,0.8,0.415,-0.015,-0.32,-0.45,-0.445,-0.39,-0.355,-0.34,-0.34,-0.34,-0.345,-0.35,-0.345,-0.345,-0.35,-0.355,-0.35,-0.36,-0.365,-0.355,-0.35,-0.355,-0.35,-0.365,-0.37,-0.365,-0.355,-0.35,-0.355,-0.365,-0.365,-0.35,-0.345,-0.345,-0.35,-0.36,-0.345,-0.345,-0.35,-0.34,-0.345,-0.355,-0.34,-0.35,-0.34,-0.345,-0.34,-0.35,-0.355,-0.335,-0.33,-0.345,-0.35,-0.355,-0.35,-0.34,-0.33,-0.34,-0.34,-0.37,-0.35,-0.34,-0.325,-0.34,-0.34,-0.35,-0.345,-0.345,-0.33,-0.34,-0.345,-0.355,-0.35,-0.345,-0.34,-0.345,-0.355,-0.36,-0.35,-0.355,-0.35,-0.365,-0.36,-0.375,-0.37,-0.36,-0.355,-0.37,-0.375,-0.385,-0.37,-0.365,-0.36,-0.355,-0.36,-0.37,-0.365,-0.35,-0.325,-0.32,-0.31,-0.31,-0.305,-0.295,-0.275,-0.275,-0.28,-0.28,-0.265,-0.255,-0.245,-0.245,-0.25,-0.26,-0.255,-0.23,-0.235,-0.23,-0.245,-0.255,-0.24,-0.23,-0.235,-0.235,-0.235,-0.25,-0.245,-0.245,-0.23,-0.235,-0.25,-0.255,-0.25,-0.245,-0.245,-0.25,-0.245,-0.265,-0.255,-0.245,-0.245,-0.25,-0.255,-0.265,-0.265,-0.25,-0.25,-0.26,-0.26,-0.265,-0.26,-0.265,-0.265,-0.265,-0.28,-0.285,-0.29,-0.275,-0.28,-0.28,-0.28,-0.295,-0.29,-0.285,-0.28,-0.275,-0.29,-0.29,-0.29,-0.285,-0.275,-0.28,-0.295,-0.29,-0.285,-0.28,-0.275,-0.28,-0.285,-0.305,-0.3,-0.29,-0.295,-0.275,N
0.8,0.87,0.825,0.605,0.28,-0.07,-0.32,-0.46,-0.52,-0.51,-0.45,-0.43,-0.415,-0.415,-0.42,-0.42,-0.42,-0.425,-0.415,-0.41,-0.4,-0.41,-0.43,-0.44,-0.425,-0.42,-0.41,-0.405,-0.42,-0.425,-0.43,-0.425,-0.41,-0.425,-0.41,-0.42,-0.415,-0.41,-0.41,-0.4,-0.415,-0.43,-0.415,-0.415,-0.415,-0.415,-0.405,-0.44,-0.43,-0.435,-0.42,-0.415,-0.43,-0.43,-0.425,-0.41,-0.405,-0.4,-0.415,-0.43,-0.43,-0.42,-0.415,-0.42,-0.43,-0.44,-0.43,-0.43,-0.415,-0.415,-0.42,-0.435,-0.425,-0.41,-0.405,-0.41,-0.42,-0.43,-0.42,-0.41,-0.415,-0.41,-0.42,-0.435,-0.43,-0.435,-0.425,-0.44,-0.45,-0.465,-0.445,-0.44,-0.435,-0.435,-0.45,-0.475,-0.465,-0.455,-0.445,-0.44,-0.46,-0.47,-0.46,-0.46,-0.45,-0.45,-0.46,-0.46,-0.45,-0.42,-0.4,-0.39,-0.395,-0.39,-0.38,-0.365,-0.34,-0.33,-0.345,-0.35,-0.34,-0.335,-0.315,-0.33,-0.335,-0.345,-0.34,-0.325,-0.32,-0.335,-0.35,-0.355,-0.34,-0.325,-0.315,-0.31,-0.315,-0.33,-0.32,-0.32,-0.325,-0.335,-0.34,-0.355,-0.345,-0.345,-0.325,-0.34,-0.335,-0.355,-0.355,-0.35,-0.335,-0.325,-0.34,-0.345,-0.35,-0.34,-0.34,-0.35,-0.355,-0.365,-0.37,-0.355,-0.35,-0.355,-0.37,-0.365,-0.37,-0.36,-0.355,-0.355,-0.37,-0.38,-0.375,-0.37,-0.375,-0.38,-0.385,-0.395,-0.38,-0.355,-0.35,-0.355,-0.35,-0.37,-0.37,N
1.005,1.075,1.08,0.94,0.62,0.195,-0.2,-0.44,-0.51,-0.485,-0.44,-0.395,-0.39,-0.395,-0.41,-0.42,-0.42,-0.405,-0.39,-0.4,-0.415,-0.42,-0.43,-0.42,-0.415,-0.42,-0.42,-0.425,-0.425,-0.415,-0.415,-0.415,-0.43,-0.435,-0.425,-0.415,-0.41,-0.415,-0.42,-0.435,-0.42,-0.42,-0.41,-0.41,-0.43,-0.425,-0.425,-0.41,-0.405,-0.41,-0.42,-0.43,-0.42,-0.42,-0.41,-0.4,-0.415,-0.415,-0.415,-0.405,-0.39,-0.395,-0.41,-0.41,-0.415,-0.405,-0.405,-0.41,-0.415,-0.42,-0.405,-0.4,-0.41,-0.4,-0.41,-0.415,-0.41,-0.405,-0.395,-0.385,-0.41,-0.42,-0.405,-0.395,-0.385,-0.395,-0.405,-0.41,-0.395,-0.4,-0.405,-0.405,-0.41,-0.415,-0.415,-0.41,-0.405,-0.405,-0.42,-0.425,-0.425,-0.41,-0.415,-0.42,-0.42,-0.44,-0.425,-0.415,-0.405,-0.415,-0.41,-0.415,-0.385,-0.38,-0.355,-0.355,-0.355,-0.365,-0.345,-0.33,-0.32,-0.315,-0.32,-0.325,-0.325,-0.31,-0.295,-0.3,-0.305,-0.315,-0.31,-0.305,-0.29,-0.3,-0.3,-0.31,-0.305,-0.3,-0.3,-0.285,-0.305,-0.305,-0.3,-0.3,-0.295,-0.29,-0.32,-0.325,-0.3,-0.31,-0.3,-0.3,-0.32,-0.325,-0.325,-0.315,-0.3,-0.32,-0.325,-0.33,-0.32,-0.32,-0.31,-0.305,-0.32,-0.34,-0.33,-0.33,-0.325,-0.33,-0.34,-0.34,-0.34,-0.33,-0.33,-0.335,-0.35,-0.36,-0.35,-0.34,-0.33,-0.34,-0.35,-0.36,-0.355,-0.345,-0.35,N
0.92,0.915,0.755,0.43,0.055,-0.265,-0.46,-0.545,-0.53,-0.47,-0.42,-0.405,-0.405,-0.42,-0.43,-0.43,-0.42,-0.405,-0.41,-0.425,-0.43,-0.43,-0.43,-0.415,-0.415,-0.415,-0.43,-0.42,-0.41,-0.405,-0.41,-0.42,-0.425,-0.42,-0.415,-0.4,-0.41,-0.405,-0.42,-0.405,-0.415,-0.395,-0.395,-0.4,-0.415,-0.415,-0.405,-0.405,-0.395,-0.41,-0.425,-0.41,-0.4,-0.395,-0.39,-0.39,-0.405,-0.4,-0.395,-0.39,-0.39,-0.405,-0.405,-0.405,-0.405,-0.4,-0.4,-0.415,-0.425,-0.43,-0.41,-0.395,-0.38,-0.39,-0.41,-0.41,-0.395,-0.4,-0.395,-0.4,-0.415,-0.41,-0.405,-0.4,-0.395,-0.42,-0.415,-0.41,-0.415,-0.395,-0.415,-0.415,-0.43,-0.43,-0.425,-0.415,-0.425,-0.43,-0.43,-0.43,-0.41,-0.4,-0.39,-0.4,-0.405,-0.395,-0.385,-0.37,-0.355,-0.36,-0.36,-0.355,-0.355,-0.33,-0.335,-0.34,-0.35,-0.34,-0.335,-0.325,-0.32,-0.325,-0.325,-0.325,-0.31,-0.315,-0.315,-0.32,-0.335,-0.325,-0.315,-0.305,-0.31,-0.315,-0.325,-0.325,-0.315,-0.315,-0.32,-0.32,-0.335,-0.345,-0.335,-0.325,-0.335,-0.34,-0.37,-0.355,-0.35,-0.345,-0.34,-0.35,-0.35,-0.345,-0.335,-0.34,-0.335,-0.355,-0.375,-0.375,-0.37,-0.355,-0.355,-0.36,-0.365,-0.36,-0.355,-0.36,-0.35,-0.365,-0.385,-0.385,-0.375,-0.37,-0.365,-0.375,-0.39,-0.385,-0.375,-0.37,-0.375,-0.375,-0.38,-0.385,-0.375,-0.365,-0.37,N
0.89,0.87,0.685,0.325,-0.05,-0.34,-0.5,-0.555,-0.53,-0.48,-0.455,-0.465,-0.46,-0.46,-0.445,-0.44,-0.44,-0.455,-0.46,-0.45,-0.45,-0.45,-0.45,-0.45,-0.455,-0.45,-0.455,-0.445,-0.46,-0.48,-0.47,-0.465,-0.445,-0.455,-0.445,-0.455,-0.455,-0.455,-0.455,-0.44,-0.46,-0.475,-0.465,-0.46,-0.455,-0.46,-0.465,-0.465,-0.465,-0.465,-0.45,-0.45,-0.465,-0.485,-0.475,-0.465,-0.455,-0.44,-0.45,-0.46,-0.465,-0.455,-0.45,-0.45,-0.455,-0.47,-0.465,-0.45,-0.435,-0.435,-0.45,-0.48,-0.465,-0.47,-0.46,-0.465,-0.47,-0.47,-0.48,-0.48,-0.475,-0.48,-0.49,-0.5,-0.495,-0.5,-0.485,-0.49,-0.51,-0.505,-0.52,-0.515,-0.51,-0.515,-0.505,-0.52,-0.515,-0.505,-0.475,-0.46,-0.455,-0.445,-0.425,-0.405,-0.405,-0.39,-0.39,-0.41,-0.39,-0.375,-0.36,-0.35,-0.35,-0.355,-0.36,-0.35,-0.335,-0.33,-0.355,-0.365,-0.36,-0.335,-0.33,-0.335,-0.36,-0.38,-0.38,-0.36,-0.35,-0.345,-0.345,-0.365,-0.345,-0.34,-0.325,-0.335,-0.355,-0.365,-0.355,-0.35,-0.34,-0.35,-0.355,-0.38,-0.38,-0.38,-0.37,-0.36,-0.365,-0.37,-0.375,-0.365,-0.365,-0.375,-0.385,-0.38,-0.385,-0.375,-0.365,-0.375,-0.38,-0.4,-0.39,-0.39,-0.385,-0.375,-0.375,-0.4,-0.4,-0.395,-0.39,-0.39,-0.395,-0.405,-0.41,-0.41,-0.39,-0.375,-0.39,-0.4,-0.39,-0.39,-0.365,-0.38,-0.385,-0.39,-0.39,N
0.89,0.935,0.745,0.34,-0.115,-0.43,-0.53,-0.505,-0.445,-0.4,-0.405,-0.41,-0.415,-0.42,-0.4,-0.405,-0.405,-0.425,-0.41,-0.405,-0.42,-0.405,-0.415,-0.415,-0.415,-0.41,-0.4,-0.405,-0.41,-0.415,-0.405,-0.41,-0.4,-0.395,-0.405,-0.42,-0.41,-0.405,-0.4,-0.405,-0.405,-0.41,-0.415,-0.395,-0.395,-0.395,-0.405,-0.415,-0.415,-0.4,-0.4,-0.4,-0.405,-0.415,-0.43,-0.415,-0.405,-0.405,-0.41,-0.42,-0.42,-0.42,-0.4,-0.395,-0.4,-0.41,-0.415,-0.415,-0.39,-0.395,-0.395,-0.405,-0.395,-0.39,-0.385,-0.4,-0.4,-0.41,-0.42,-0.43,-0.415,-0.415,-0.42,-0.435,-0.44,-0.44,-0.43,-0.425,-0.44,-0.455,-0.455,-0.45,-0.435,-0.44,-0.45,-0.455,-0.445,-0.435,-0.43,-0.42,-0.425,-0.425,-0.415,-0.39,-0.37,-0.355,-0.355,-0.365,-0.355,-0.33,-0.32,-0.315,-0.315,-0.31,-0.31,-0.3,-0.285,-0.28,-0.295,-0.315,-0.295,-0.29,-0.28,-0.285,-0.295,-0.3,-0.3,-0.29,-0.28,-0.285,-0.285,-0.3,-0.295,-0.3,-0.28,-0.285,-0.29,-0.295,-0.305,-0.3,-0.29,-0.295,-0.295,-0.305,-0.295,-0.3,-0.295,-0.295,-0.3,-0.305,-0.315,-0.31,-0.305,-0.305,-0.31,-0.32,-0.32,-0.31,-0.3,-0.305,-0.32,-0.325,-0.33,-0.325,-0.32,-0.315,-0.325,-0.325,-0.315,-0.32,-0.305,-0.315,-0.315,-0.33,-0.34,-0.32,-0.305,-0.32,-0.33,-0.335,-0.325,-0.325,-0.315,-0.315,-0.32,-0.325,-0.335,N
1.085,1.125,1.01,0.665,0.175,-0.235,-0.445,-0.475,-0.395,-0.36,-0.355,-0.36,-0.375,-0.37,-0.35,-0.35,-0.365,-0.37,-0.375,-0.37,-0.37,-0.365,-0.375,-0.38,-0.375,-0.375,-0.355,-0.365,-0.37,-0.375,-0.375,-0.365,-0.36,-0.355,-0.37,-0.38,-0.375,-0.36,-0.36,-0.355,-0.365,-0.365,-0.38,-0.36,-0.365,-0.36,-0.36,-0.36,-0.365,-0.36,-0.35,-0.36,-0.35,-0.365,-0.37,-0.36,-0.35,-0.365,-0.37,-0.375,-0.375,-0.375,-0.36,-0.37,-0.365,-0.365,-0.365,-0.37,-0.35,-0.355,-0.36,-0.37,-0.37,-0.365,-0.35,-0.365,-0.365,-0.385,-0.375,-0.37,-0.36,-0.365,-0.37,-0.38,-0.385,-0.375,-0.37,-0.375,-0.375,-0.385,-0.38,-0.38,-0.36,-0.365,-0.375,-0.385,-0.38,-0.355,-0.355,-0.345,-0.34,-0.345,-0.335,-0.31,-0.305,-0.3,-0.305,-0.305,-0.305,-0.285,-0.275,-0.275,-0.275,-0.28,-0.28,-0.265,-0.255,-0.255,-0.25,-0.27,-0.26,-0.26,-0.25,-0.255,-0.27,-0.28,-0.28,-0.28,-0.265,-0.255,-0.275,-0.27,-0.29,-0.275,-0.27,-0.27,-0.285,-0.29,-0.295,-0.285,-0.275,-0.275,-0.29,-0.285,-0.29,-0.285,-0.285,-0.285,-0.295,-0.3,-0.305,-0.295,-0.29,-0.3,-0.3,-0.315,-0.315,-0.305,-0.3,-0.295,-0.305,-0.31,-0.31,-0.3,-0.295,-0.3,-0.315,-0.31,-0.32,-0.315,-0.3,-0.31,-0.305,-0.32,-0.32,-0.32,-0.315,-0.315,-0.31,-0.325,-0.32,-0.32,-0.31,-0.305,-0.32,-0.315,-0.325,N
0.87,0.905,0.74,0.405,0.0,-0.325,-0.455,-0.44,-0.39,-0.365,-0.37,-0.36,-0.36,-0.335,-0.35,-0.36,-0.36,-0.355,-0.36,-0.355,-0.365,-0.355,-0.36,-0.37,-0.36,-0.345,-0.355,-0.36,-0.36,-0.365,-0.365,-0.35,-0.36,-0.37,-0.38,-0.37,-0.36,-0.355,-0.365,-0.36,-0.37,-0.375,-0.355,-0.345,-0.35,-0.355,-0.37,-0.365,-0.35,-0.345,-0.345,-0.35,-0.365,-0.37,-0.365,-0.35,-0.365,-0.375,-0.37,-0.38,-0.365,-0.35,-0.365,-0.365,-0.355,-0.375,-0.375,-0.36,-0.365,-0.365,-0.365,-0.365,-0.365,-0.355,-0.365,-0.37,-0.385,-0.375,-0.37,-0.37,-0.365,-0.37,-0.38,-0.38,-0.39,-0.37,-0.375,-0.385,-0.385,-0.4,-0.39,-0.375,-0.385,-0.39,-0.395,-0.395,-0.385,-0.39,-0.395,-0.4,-0.4,-0.4,-0.395,-0.365,-0.365,-0.365,-0.365,-0.37,-0.35,-0.335,-0.335,-0.33,-0.34,-0.345,-0.305,-0.3,-0.3,-0.3,-0.31,-0.315,-0.3,-0.29,-0.28,-0.3,-0.3,-0.31,-0.29,-0.29,-0.295,-0.305,-0.31,-0.315,-0.305,-0.3,-0.31,-0.325,-0.32,-0.32,-0.31,-0.295,-0.31,-0.305,-0.32,-0.325,-0.32,-0.31,-0.315,-0.325,-0.325,-0.335,-0.315,-0.31,-0.325,-0.325,-0.335,-0.335,-0.335,-0.33,-0.34,-0.34,-0.34,-0.345,-0.335,-0.33,-0.33,-0.345,-0.345,-0.345,-0.34,-0.33,-0.345,-0.35,-0.37,-0.375,-0.355,-0.36,-0.34,-0.355,-0.36,-0.36,-0.36,-0.35,-0.34,-0.34,-0.36,-0.36,-0.36,N
0.9,0.86,0.64,0.275,-0.08,-0.34,-0.465,-0.5,-0.49,-0.46,-0.445,-0.44,-0.45,-0.42,-0.415,-0.41,-0.405,-0.42,-0.395,-0.395,-0.39,-0.405,-0.425,-0.43,-0.41,-0.41,-0.425,-0.425,-0.435,-0.43,-0.425,-0.405,-0.405,-0.41,-0.405,-0.42,-0.415,-0.405,-0.41,-0.425,-0.425,-0.42,-0.415,-0.405,-0.415,-0.41,-0.415,-0.425,-0.415,-0.405,-0.415,-0.425,-0.425,-0.43,-0.41,-0.4,-0.4,-0.405,-0.405,-0.405,-0.4,-0.39,-0.395,-0.405,-0.42,-0.425,-0.42,-0.41,-0.41,-0.405,-0.415,-0.415,-0.41,-0.405,-0.4,-0.405,-0.415,-0.425,-0.41,-0.415,-0.405,-0.415,-0.425,-0.425,-0.42,-0.41,-0.41,-0.43,-0.445,-0.445,-0.435,-0.435,-0.445,-0.455,-0.465,-0.47,-0.465,-0.46,-0.47,-0.48,-0.475,-0.485,-0.475,-0.46,-0.46,-0.47,-0.465,-0.47,-0.455,-0.43,-0.425,-0.425,-0.415,-0.41,-0.385,-0.365,-0.365,-0.355,-0.355,-0.36,-0.335,-0.325,-0.325,-0.325,-0.33,-0.335,-0.32,-0.3,-0.305,-0.31,-0.325,-0.325,-0.325,-0.3,-0.3,-0.305,-0.315,-0.315,-0.305,-0.29,-0.3,-0.305,-0.325,-0.32,-0.31,-0.315,-0.31,-0.33,-0.32,-0.325,-0.315,-0.315,-0.315,-0.305,-0.32,-0.33,-0.32,-0.31,-0.315,-0.31,-0.32,-0.325,-0.33,-0.31,-0.315,-0.325,-0.325,-0.34,-0.325,-0.315,-0.31,-0.325,-0.33,-0.33,-0.33,-0.325,-0.315,-0.325,-0.33,-0.34,-0.325,-0.32,-0.33,-0.335,-0.34,-0.335,-0.33,N
1.035,0.99,0.77,0.4,-0.025,-0.315,-0.445,-0.475,-0.455,-0.42,-0.385,-0.36,-0.35,-0.36,-0.37,-0.37,-0.385,-0.38,-0.36,-0.36,-0.37,-0.38,-0.375,-0.37,-0.37,-0.37,-0.38,-0.38,-0.385,-0.37,-0.355,-0.36,-0.365,-0.365,-0.36,-0.36,-0.35,-0.355,-0.36,-0.37,-0.37,-0.355,-0.345,-0.345,-0.365,-0.355,-0.365,-0.355,-0.35,-0.355,-0.35,-0.36,-0.365,-0.35,-0.355,-0.34,-0.355,-0.37,-0.355,-0.345,-0.34,-0.34,-0.345,-0.345,-0.345,-0.34,-0.34,-0.35,-0.35,-0.355,-0.355,-0.35,-0.345,-0.345,-0.355,-0.35,-0.365,-0.35,-0.345,-0.345,-0.35,-0.36,-0.36,-0.36,-0.35,-0.345,-0.365,-0.37,-0.375,-0.365,-0.355,-0.365,-0.375,-0.375,-0.395,-0.385,-0.37,-0.37,-0.38,-0.385,-0.395,-0.38,-0.375,-0.37,-0.365,-0.38,-0.37,-0.36,-0.34,-0.335,-0.335,-0.34,-0.345,-0.325,-0.31,-0.315,-0.305,-0.305,-0.305,-0.28,-0.27,-0.26,-0.265,-0.275,-0.265,-0.25,-0.235,-0.245,-0.25,-0.25,-0.255,-0.245,-0.235,-0.245,-0.235,-0.255,-0.26,-0.24,-0.235,-0.235,-0.235,-0.25,-0.255,-0.25,-0.245,-0.24,-0.255,-0.26,-0.26,-0.255,-0.245,-0.255,-0.265,-0.265,-0.265,-0.265,-0.265,-0.265,-0.26,-0.275,-0.285,-0.28,-0.275,-0.27,-0.275,-0.29,-0.29,-0.28,-0.275,-0.275,-0.28,-0.3,-0.305,-0.285,-0.27,-0.275,-0.28,-0.285,-0.295,-0.28,-0.29,-0.29,-0.285,-0.305,-0.29,-0.29,-0.295,N
1.0,0.975,0.745,0.32,-0.12,-0.38,-0.45,-0.42,-0.375,-0.35,-0.33,-0.335,-0.35,-0.335,-0.34,-0.345,-0.345,-0.35,-0.335,-0.35,-0.365,-0.37,-0.365,-0.355,-0.34,-0.355,-0.365,-0.37,-0.36,-0.35,-0.35,-0.36,-0.36,-0.365,-0.345,-0.36,-0.355,-0.35,-0.36,-0.35,-0.34,-0.335,-0.33,-0.355,-0.35,-0.355,-0.34,-0.335,-0.335,-0.35,-0.35,-0.35,-0.34,-0.34,-0.33,-0.35,-0.35,-0.345,-0.335,-0.335,-0.33,-0.335,-0.345,-0.355,-0.335,-0.325,-0.325,-0.335,-0.35,-0.35,-0.34,-0.33,-0.34,-0.345,-0.34,-0.355,-0.345,-0.33,-0.34,-0.335,-0.345,-0.35,-0.335,-0.33,-0.335,-0.34,-0.35,-0.355,-0.35,-0.335,-0.345,-0.345,-0.355,-0.37,-0.36,-0.35,-0.35,-0.355,-0.355,-0.37,-0.36,-0.345,-0.35,-0.355,-0.375,-0.365,-0.365,-0.35,-0.34,-0.335,-0.335,-0.335,-0.325,-0.3,-0.29,-0.285,-0.285,-0.285,-0.275,-0.265,-0.26,-0.265,-0.265,-0.27,-0.255,-0.24,-0.245,-0.27,-0.26,-0.26,-0.26,-0.25,-0.25,-0.255,-0.255,-0.27,-0.25,-0.245,-0.245,-0.255,-0.255,-0.27,-0.26,-0.255,-0.26,-0.265,-0.27,-0.275,-0.265,-0.26,-0.265,-0.265,-0.275,-0.275,-0.27,-0.265,-0.275,-0.27,-0.28,-0.29,-0.27,-0.265,-0.27,-0.28,-0.29,-0.3,-0.285,-0.29,-0.285,-0.29,-0.295,-0.305,-0.29,-0.28,-0.295,-0.3,-0.31,-0.32,-0.305,-0.305,-0.29,-0.295,-0.3,-0.305,-0.305,-0.31,-0.295,N
0.925,0.86,0.595,0.185,-0.19,-0.42,-0.49,-0.475,-0.44,-0.4,-0.39,-0.39,-0.4,-0.395,-0.385,-0.38,-0.38,-0.395,-0.405,-0.4,-0.385,-0.385,-0.395,-0.39,-0.39,-0.39,-0.38,-0.385,-0.395,-0.4,-0.4,-0.395,-0.39,-0.405,-0.4,-0.41,-0.415,-0.395,-0.395,-0.38,-0.39,-0.39,-0.395,-0.385,-0.385,-0.39,-0.395,-0.405,-0.405,-0.395,-0.385,-0.39,-0.385,-0.39,-0.4,-0.39,-0.39,-0.39,-0.395,-0.4,-0.395,-0.395,-0.385,-0.38,-0.39,-0.4,-0.39,-0.385,-0.385,-0.39,-0.395,-0.395,-0.4,-0.375,-0.375,-0.37,-0.39,-0.405,-0.41,-0.415,-0.4,-0.405,-0.415,-0.425,-0.435,-0.435,-0.435,-0.425,-0.435,-0.44,-0.445,-0.445,-0.435,-0.435,-0.445,-0.45,-0.45,-0.44,-0.415,-0.415,-0.405,-0.395,-0.395,-0.375,-0.36,-0.35,-0.355,-0.345,-0.345,-0.335,-0.32,-0.31,-0.31,-0.305,-0.305,-0.3,-0.28,-0.28,-0.275,-0.29,-0.29,-0.265,-0.255,-0.25,-0.255,-0.27,-0.285,-0.26,-0.265,-0.255,-0.26,-0.275,-0.275,-0.265,-0.26,-0.255,-0.265,-0.27,-0.275,-0.265,-0.265,-0.26,-0.265,-0.28,-0.285,-0.275,-0.265,-0.26,-0.275,-0.275,-0.285,-0.28,-0.265,-0.265,-0.27,-0.28,-0.305,-0.295,-0.285,-0.29,-0.275,-0.285,-0.29,-0.285,-0.295,-0.29,-0.3,-0.3,-0.3,-0.3,-0.295,-0.285,-0.29,-0.3,-0.315,-0.295,-0.295,-0.285,-0.29,-0.3,-0.3,-0.3,-0.285,-0.285,-0.28,-0.305,-0.31,N
1.03,1.03,0.815,0.415,-0.055,-0.385,-0.475,-0.43,-0.345,-0.325,-0.325,-0.35,-0.36,-0.36,-0.345,-0.35,-0.355,-0.36,-0.36,-0.365,-0.355,-0.355,-0.355,-0.375,-0.375,-0.37,-0.36,-0.355,-0.35,-0.35,-0.36,-0.37,-0.355,-0.36,-0.365,-0.365,-0.37,-0.37,-0.36,-0.36,-0.35,-0.35,-0.365,-0.36,-0.365,-0.35,-0.345,-0.35,-0.355,-0.36,-0.355,-0.34,-0.35,-0.355,-0.345,-0.355,-0.35,-0.34,-0.34,-0.345,-0.345,-0.355,-0.35,-0.345,-0.345,-0.34,-0.35,-0.36,-0.355,-0.35,-0.34,-0.34,-0.345,-0.35,-0.345,-0.34,-0.335,-0.34,-0.36,-0.355,-0.35,-0.35,-0.345,-0.355,-0.355,-0.365,-0.36,-0.355,-0.35,-0.36,-0.37,-0.375,-0.35,-0.355,-0.345,-0.355,-0.355,-0.36,-0.345,-0.335,-0.325,-0.315,-0.31,-0.305,-0.29,-0.28,-0.275,-0.26,-0.265,-0.265,-0.25,-0.245,-0.24,-0.24,-0.245,-0.25,-0.24,-0.24,-0.235,-0.24,-0.245,-0.245,-0.245,-0.23,-0.245,-0.24,-0.245,-0.255,-0.245,-0.245,-0.24,-0.24,-0.245,-0.26,-0.25,-0.25,-0.255,-0.25,-0.26,-0.265,-0.27,-0.255,-0.28,-0.26,-0.285,-0.27,-0.265,-0.255,-0.275,-0.275,-0.29,-0.285,-0.295,-0.28,-0.275,-0.285,-0.29,-0.3,-0.285,-0.29,-0.295,-0.295,-0.31,-0.315,-0.295,-0.29,-0.29,-0.29,-0.29,-0.305,-0.295,-0.3,-0.3,-0.31,-0.305,-0.31,-0.3,-0.3,-0.295,-0.295,-0.295,-0.315,-0.305,-0.3,-0.295,-0.3,-0.3,N
